! File created by WinPLOTR 
! INITIAL .UXD FILE: E:\Double perovskite - Bilbao\La2CoMnO6\Desy\DesyData 09-01-14\Data\ModifiedFiles\La2CoMnO6Jan2014 [007].UXD
! SCAN #:               1
! FULLPROF format:   INSTRM_10 (X,Y,sig)
! DATE:              '11-Jan-2014 09:19:29'
! SAMPLE:            'La2CoMnO6Jan2014'
! DIFFRACTOMETER:    
! WAVE (A):             1.54060
! TEMPERATURE         179.99
! NUMBER OF DATA:      1576
! 
        15.00000      377.00000       19.41649
        15.06667      495.00000       22.24860
        15.13334      428.00000       20.68816
        15.20000      382.00000       19.54482
        15.26667      312.00000       17.66352
        15.33334      547.00000       23.38803
        15.40001      277.00000       16.64332
        15.46668      534.00000       23.10844
        15.53334      570.00000       23.87467
        15.60001      719.00000       26.81417
        15.66668      884.00000       29.73214
        15.73335      730.00000       27.01851
        15.80002      754.00000       27.45906
        15.86668      806.00000       28.39014
        15.93335      903.00000       30.04996
        16.00002      766.00000       27.67670
        16.06669      740.00000       27.20294
        16.13336     1007.00000       31.73326
        16.20002      854.00000       29.22328
        16.26669      954.00000       30.88689
        16.33336     1024.00000       32.00000
        16.40003     1026.00000       32.03123
        16.46670      878.00000       29.63107
        16.53336      996.00000       31.55947
        16.60003      955.00000       30.90307
        16.66670      685.00000       26.17250
        16.73337      986.00000       31.40064
        16.80004      641.00000       25.31798
        16.86670      638.00000       25.25866
        16.93337      512.00000       22.62742
        17.00004      451.00000       21.23676
        17.06671      363.00000       19.05256
        17.13338      520.00000       22.80351
        17.20004      574.00000       23.95830
        17.26671      311.00000       17.63519
        17.33338      439.00000       20.95233
        17.40005      393.00000       19.82423
        17.46672      429.00000       20.71231
        17.53338      397.00000       19.92486
        17.60005      799.00000       28.26659
        17.66672      544.00000       23.32381
        17.73339      563.00000       23.72762
        17.80006      524.00000       22.89105
        17.86672      841.00000       29.00000
        17.93339      555.00000       23.55844
        18.00006      670.00000       25.88436
        18.06673      919.00000       30.31501
        18.13340      755.00000       27.47726
        18.20006      645.00000       25.39685
        18.26673      926.00000       30.43025
        18.33340      853.00000       29.20616
        18.40007      815.00000       28.54820
        18.46674      694.00000       26.34388
        18.53340      672.00000       25.92296
        18.60007      926.00000       30.43025
        18.66674      541.00000       23.25941
        18.73341      830.00000       28.80972
        18.80008      771.00000       27.76689
        18.86674      735.00000       27.11088
        18.93341      742.00000       27.23968
        19.00008      922.00000       30.36445
        19.06675      979.00000       31.28897
        19.13342      696.00000       26.38181
        19.20008      757.00000       27.51363
        19.26675      839.00000       28.96550
        19.33342      910.00000       30.16621
        19.40009      752.00000       27.42262
        19.46675      932.00000       30.52868
        19.53342      932.00000       30.52868
        19.60009      847.00000       29.10326
        19.66676      710.00000       26.64582
        19.73343     1031.00000       32.10919
        19.80010      653.00000       25.55387
        19.86676      638.00000       25.25866
        19.93343      332.00000       18.22087
        20.00010      402.00000       20.04994
        20.06677      552.00000       23.49468
        20.13344      483.00000       21.97726
        20.20010      404.00000       20.09975
        20.26677      405.00000       20.12461
        20.33344      403.00000       20.07486
        20.40011      260.00000       16.12452
        20.46678      596.00000       24.41311
        20.53344      373.00000       19.31321
        20.60011      668.00000       25.84570
        20.66678      446.00000       21.11871
        20.73345      543.00000       23.30236
        20.80012      383.00000       19.57038
        20.86678      537.00000       23.17326
        20.93345      805.00000       28.37252
        21.00012      555.00000       23.55844
        21.06679      719.00000       26.81417
        21.13346      771.00000       27.76689
        21.20012      581.00000       24.10394
        21.26679      562.00000       23.70654
        21.33346      469.00000       21.65641
        21.40013      598.00000       24.45404
        21.46679      641.00000       25.31798
        21.53346      499.00000       22.33831
        21.60013      672.00000       25.92296
        21.66680      665.00000       25.78759
        21.73347      686.00000       26.19160
        21.80014      758.00000       27.53180
        21.86680      596.00000       24.41311
        21.93347      666.00000       25.80698
        22.00014      790.00000       28.10694
        22.06681      813.00000       28.51315
        22.13348      649.00000       25.47548
        22.20014      780.00000       27.92848
        22.26681      669.00000       25.86503
        22.33348      864.00000       29.39388
        22.40015      917.00000       30.28201
        22.46682     1012.00000       31.81195
        22.53348     1147.00000       33.86739
        22.60015     1409.00000       37.53665
        22.66682     2088.00000       45.69464
        22.73349     2403.00000       49.02040
        22.80016     2762.00000       52.55473
        22.86682     3702.00000       60.84406
        22.93349     5172.00000       71.91662
        23.00016     4817.00000       69.40461
        23.06683     2661.00000       51.58488
        23.13350     1234.00000       35.12834
        23.20016     1023.00000       31.98437
        23.26683      764.00000       27.64055
        23.33350      710.00000       26.64582
        23.40017      698.00000       26.41969
        23.46684      649.00000       25.47548
        23.53350      514.00000       22.67157
        23.60017      560.00000       23.66432
        23.66684      440.00000       20.97618
        23.73351      617.00000       24.83949
        23.80017      476.00000       21.81742
        23.86684      546.00000       23.36664
        23.93351      460.00000       21.44761
        24.00018      588.00000       24.24871
        24.06685      369.00000       19.20937
        24.13352      413.00000       20.32240
        24.20018      447.00000       21.14237
        24.26685      553.00000       23.51595
        24.33352      581.00000       24.10394
        24.40019      519.00000       22.78157
        24.46686      564.00000       23.74868
        24.53352      451.00000       21.23676
        24.60019      691.00000       26.28688
        24.66686      574.00000       23.95830
        24.73353      744.00000       27.27636
        24.80020      444.00000       21.07131
        24.86686      533.00000       23.08679
        24.93353      435.00000       20.85665
        25.00020      530.00000       23.02173
        25.06687      436.00000       20.88061
        25.13354      487.00000       22.06808
        25.20020      654.00000       25.57342
        25.26687      502.00000       22.40536
        25.33354      438.00000       20.92845
        25.40021      450.00000       21.21320
        25.46688      582.00000       24.12468
        25.53354      662.00000       25.72936
        25.60021      403.00000       20.07486
        25.66688      631.00000       25.11971
        25.73355      577.00000       24.02082
        25.80021      614.00000       24.77902
        25.86688      539.00000       23.21637
        25.93355      467.00000       21.61018
        26.00022      658.00000       25.65151
        26.06689      720.00000       26.83282
        26.13355      727.00000       26.96294
        26.20022      566.00000       23.79075
        26.26689      612.00000       24.73863
        26.33356      713.00000       26.70206
        26.40023      512.00000       22.62742
        26.46690      633.00000       25.15949
        26.53356      575.00000       23.97916
        26.60023      606.00000       24.61707
        26.66690      536.00000       23.15167
        26.73357      746.00000       27.31300
        26.80024      490.00000       22.13594
        26.86690      627.00000       25.03997
        26.93357      454.00000       21.30728
        27.00024      737.00000       27.14774
        27.06691      569.00000       23.85372
        27.13358      680.00000       26.07681
        27.20024      633.00000       25.15949
        27.26691      501.00000       22.38303
        27.33358      419.00000       20.46949
        27.40025      464.00000       21.54066
        27.46692      419.00000       20.46949
        27.53358      457.00000       21.37756
        27.60025      467.00000       21.61018
        27.66692      561.00000       23.68544
        27.73359      619.00000       24.87971
        27.80025      319.00000       17.86057
        27.86692      458.00000       21.40093
        27.93359      656.00000       25.61250
        28.00026      474.00000       21.77154
        28.06693      552.00000       23.49468
        28.13359      436.00000       20.88061
        28.20026      548.00000       23.40940
        28.26693      496.00000       22.27106
        28.33360      622.00000       24.93993
        28.40027      543.00000       23.30236
        28.46694      632.00000       25.13961
        28.53360      518.00000       22.75961
        28.60027      501.00000       22.38303
        28.66694      573.00000       23.93742
        28.73361      597.00000       24.43358
        28.80028      538.00000       23.19483
        28.86694      555.00000       23.55844
        28.93361      365.00000       19.10497
        29.00028      508.00000       22.53885
        29.06695      565.00000       23.76973
        29.13362      544.00000       23.32381
        29.20028      718.00000       26.79552
        29.26695      655.00000       25.59297
        29.33362      534.00000       23.10844
        29.40029      490.00000       22.13594
        29.46696      617.00000       24.83949
        29.53362      501.00000       22.38303
        29.60029      412.00000       20.29778
        29.66696      493.00000       22.20360
        29.73363      505.00000       22.47220
        29.80029      614.00000       24.77902
        29.86696      561.00000       23.68544
        29.93363      606.00000       24.61707
        30.00030      599.00000       24.47448
        30.06697      610.00000       24.69818
        30.13363      520.00000       22.80351
        30.20030      547.00000       23.38803
        30.26697      622.00000       24.93993
        30.33364      508.00000       22.53885
        30.40031      528.00000       22.97825
        30.46697      475.00000       21.79449
        30.53364      690.00000       26.26785
        30.60031      617.00000       24.83949
        30.66698      657.00000       25.63201
        30.73365      668.00000       25.84570
        30.80032      534.00000       23.10844
        30.86698      737.00000       27.14774
        30.93365      604.00000       24.57641
        31.00032      600.00000       24.49490
        31.06699      588.00000       24.24871
        31.13366      609.00000       24.67793
        31.20032      611.00000       24.71841
        31.26699      628.00000       25.05993
        31.33366      599.00000       24.47448
        31.40033      707.00000       26.58947
        31.46700      777.00000       27.87472
        31.53366      835.00000       28.89637
        31.60033      787.00000       28.05352
        31.66700      959.00000       30.96773
        31.73367      971.00000       31.16087
        31.80033     1220.00000       34.92850
        31.86700     1508.00000       38.83298
        31.93367     1945.00000       44.10215
        32.00034     2413.00000       49.12230
        32.06701     4084.00000       63.90618
        32.13367     5860.00000       76.55064
        32.20034     8172.00000       90.39912
        32.26701    10910.00000      104.45094
        32.33368    14590.00000      120.78907
        32.40035    22232.00000      149.10399
        32.46701    27689.00000      166.40012
        32.53368    25887.00000      160.89438
        32.60035    21994.00000      148.30374
        32.66702    19790.00000      140.67694
        32.73369    18948.00000      137.65173
        32.80035    20751.00000      144.05208
        32.86702    22506.00000      150.02000
        32.93369    16102.00000      126.89365
        33.00036     8631.00000       92.90318
        33.06703     4362.00000       66.04544
        33.13369     2702.00000       51.98077
        33.20036     1857.00000       43.09292
        33.26703     1481.00000       38.48376
        33.33370     1338.00000       36.57868
        33.40037     1160.00000       34.05877
        33.46703     1117.00000       33.42155
        33.53370      954.00000       30.88689
        33.60037      780.00000       27.92848
        33.66704      848.00000       29.12044
        33.73371      672.00000       25.92296
        33.80037      656.00000       25.61250
        33.86704      512.00000       22.62742
        33.93371      679.00000       26.05763
        34.00038      504.00000       22.44994
        34.06705      426.00000       20.63977
        34.13372      663.00000       25.74879
        34.20038      557.00000       23.60085
        34.26705      567.00000       23.81176
        34.33372      559.00000       23.64318
        34.40039      612.00000       24.73863
        34.46706      592.00000       24.33105
        34.53372      571.00000       23.89561
        34.60039      510.00000       22.58318
        34.66706      530.00000       23.02173
        34.73373      580.00000       24.08319
        34.80040      518.00000       22.75961
        34.86706      638.00000       25.25866
        34.93373      575.00000       23.97916
        35.00040      383.00000       19.57038
        35.06707      502.00000       22.40536
        35.13374      536.00000       23.15167
        35.20040      352.00000       18.76166
        35.26707      505.00000       22.47220
        35.33374      433.00000       20.80865
        35.40041      481.00000       21.93171
        35.46708      440.00000       20.97618
        35.53374      405.00000       20.12461
        35.60041      561.00000       23.68544
        35.66708      621.00000       24.91987
        35.73375      511.00000       22.60531
        35.80042      518.00000       22.75961
        35.86708      416.00000       20.39608
        35.93375      509.00000       22.56103
        36.00042      310.00000       17.60682
        36.06709      559.00000       23.64318
        36.13375      394.00000       19.84943
        36.20042      484.00000       22.00000
        36.26709      480.00000       21.90890
        36.33376      526.00000       22.93469
        36.40042      358.00000       18.92089
        36.46709      544.00000       23.32381
        36.53376      533.00000       23.08679
        36.60043      422.00000       20.54264
        36.66710      465.00000       21.56386
        36.73377      547.00000       23.38803
        36.80043      392.00000       19.79899
        36.86710      549.00000       23.43075
        36.93377      489.00000       22.11334
        37.00044      369.00000       19.20937
        37.06711      583.00000       24.14539
        37.13377      440.00000       20.97618
        37.20044      594.00000       24.37212
        37.26711      570.00000       23.87467
        37.33378      446.00000       21.11871
        37.40045      425.00000       20.61553
        37.46711      532.00000       23.06512
        37.53378      473.00000       21.74856
        37.60045      503.00000       22.42766
        37.66712      365.00000       19.10497
        37.73379      577.00000       24.02082
        37.80045      508.00000       22.53885
        37.86712      457.00000       21.37756
        37.93379      521.00000       22.82542
        38.00046      459.00000       21.42429
        38.06713      481.00000       21.93171
        38.13379      533.00000       23.08679
        38.20046      810.00000       28.46050
        38.26713      862.00000       29.35984
        38.33380      839.00000       28.96550
        38.40047      931.00000       30.51229
        38.46714     1163.00000       34.10279
        38.53380      797.00000       28.23119
        38.60047      612.00000       24.73863
        38.66714      527.00000       22.95648
        38.73381      610.00000       24.69818
        38.80048      454.00000       21.30728
        38.86714      336.00000       18.33030
        38.93381      546.00000       23.36664
        39.00048      550.00000       23.45208
        39.06715      623.00000       24.95997
        39.13382      603.00000       24.55606
        39.20048      586.00000       24.20744
        39.26715      635.00000       25.19921
        39.33382      872.00000       29.52965
        39.40049      963.00000       31.03224
        39.46716     1022.00000       31.96873
        39.53382     1159.00000       34.04409
        39.60049     1402.00000       37.44329
        39.66716     1568.00000       39.59798
        39.73383     1994.00000       44.65423
        39.80050     2456.00000       49.55805
        39.86716     3229.00000       56.82429
        39.93383     3798.00000       61.62791
        40.00050     5548.00000       74.48490
        40.06717     8525.00000       92.33092
        40.13383     7735.00000       87.94885
        40.20050     5854.00000       76.51144
        40.26717     3643.00000       60.35727
        40.33384     2654.00000       51.51699
        40.40051     2135.00000       46.20606
        40.46717     1717.00000       41.43670
        40.53384     1710.00000       41.35215
        40.60051     1761.00000       41.96427
        40.66718     2060.00000       45.38722
        40.73384     2777.00000       52.69725
        40.80051     2658.00000       51.55579
        40.86718     2144.00000       46.30335
        40.93385     1467.00000       38.30144
        41.00052     1082.00000       32.89377
        41.06719      932.00000       30.52868
        41.13385      721.00000       26.85144
        41.20052      653.00000       25.55387
        41.26719      558.00000       23.62202
        41.33386      548.00000       23.40940
        41.40053      570.00000       23.87467
        41.46719      451.00000       21.23676
        41.53386      477.00000       21.84033
        41.60053      549.00000       23.43075
        41.66720      626.00000       25.01999
        41.73387      679.00000       26.05763
        41.80053      616.00000       24.81935
        41.86720      373.00000       19.31321
        41.93387      479.00000       21.88607
        42.00054      610.00000       24.69818
        42.06721      646.00000       25.41653
        42.13387      352.00000       18.76166
        42.20054      490.00000       22.13594
        42.26721      521.00000       22.82542
        42.33388      401.00000       20.02498
        42.40055      569.00000       23.85372
        42.46721      427.00000       20.66398
        42.53388      446.00000       21.11871
        42.60055      560.00000       23.66432
        42.66722      500.00000       22.36068
        42.73389      522.00000       22.84732
        42.80056      396.00000       19.89975
        42.86722      508.00000       22.53885
        42.93389      467.00000       21.61018
        43.00056      489.00000       22.11334
        43.06723      573.00000       23.93742
        43.13390      440.00000       20.97618
        43.20056      528.00000       22.97825
        43.26723      511.00000       22.60531
        43.33390      374.00000       19.33908
        43.40057      487.00000       22.06808
        43.46724      496.00000       22.27106
        43.53390      557.00000       23.60085
        43.60057      534.00000       23.10844
        43.66724      483.00000       21.97726
        43.73391      621.00000       24.91987
        43.80058      398.00000       19.94994
        43.86724      577.00000       24.02082
        43.93391      581.00000       24.10394
        44.00058      556.00000       23.57965
        44.06725      634.00000       25.17936
        44.13391      482.00000       21.95450
        44.20058      424.00000       20.59126
        44.26725      498.00000       22.31591
        44.33392      502.00000       22.40536
        44.40059      454.00000       21.30728
        44.46725      441.00000       21.00000
        44.53392      556.00000       23.57965
        44.60059      564.00000       23.74868
        44.66726      424.00000       20.59126
        44.73392      559.00000       23.64318
        44.80059      539.00000       23.21637
        44.86726      528.00000       22.97825
        44.93393      470.00000       21.67948
        45.00060      554.00000       23.53720
        45.06726      627.00000       25.03997
        45.13393      623.00000       24.95997
        45.20060      549.00000       23.43075
        45.26727      487.00000       22.06808
        45.33394      621.00000       24.91987
        45.40061      742.00000       27.23968
        45.46727      771.00000       27.76689
        45.53394      793.00000       28.16026
        45.60061      731.00000       27.03701
        45.66728      552.00000       23.49468
        45.73395      818.00000       28.60070
        45.80061      935.00000       30.57777
        45.86728      957.00000       30.93542
        45.93395      959.00000       30.96773
        46.00062     1160.00000       34.05877
        46.06729     1493.00000       38.63936
        46.13395     1229.00000       35.05709
        46.20062     1442.00000       37.97367
        46.26729     1462.00000       38.23611
        46.33396     1992.00000       44.63183
        46.40063     2767.00000       52.60228
        46.46729     4318.00000       65.71149
        46.53396     6120.00000       78.23043
        46.60063     8568.00000       92.56349
        46.66730    11888.00000      109.03210
        46.73397    16906.00000      130.02307
        46.80063    22267.00000      149.22131
        46.86730    18295.00000      135.25902
        46.93397    13595.00000      116.59760
        47.00064     7563.00000       86.96551
        47.06731     3987.00000       63.14270
        47.13398     2633.00000       51.31277
        47.20064     1848.00000       42.98837
        47.26731     1278.00000       35.74913
        47.33398     1133.00000       33.66006
        47.40065     1026.00000       32.03123
        47.46732      828.00000       28.77499
        47.53398      871.00000       29.51271
        47.60065      735.00000       27.11088
        47.66732      760.00000       27.56810
        47.73399      774.00000       27.82086
        47.80066      781.00000       27.94638
        47.86732      771.00000       27.76689
        47.93399      552.00000       23.49468
        48.00066      624.00000       24.97999
        48.06733      645.00000       25.39685
        48.13400      682.00000       26.11513
        48.20066      612.00000       24.73863
        48.26733      639.00000       25.27845
        48.33400      675.00000       25.98076
        48.40067      632.00000       25.13961
        48.46733      789.00000       28.08914
        48.53400      726.00000       26.94439
        48.60067      607.00000       24.63737
        48.66734      577.00000       24.02082
        48.73400      691.00000       26.28688
        48.80067      589.00000       24.26932
        48.86734      503.00000       22.42766
        48.93401      518.00000       22.75961
        49.00068      496.00000       22.27106
        49.06734      528.00000       22.97825
        49.13401      356.00000       18.86796
        49.20068      552.00000       23.49468
        49.26735      421.00000       20.51828
        49.33402      560.00000       23.66432
        49.40068      471.00000       21.70253
        49.46735      663.00000       25.74879
        49.53402      575.00000       23.97916
        49.60069      596.00000       24.41311
        49.66736      615.00000       24.79919
        49.73403      557.00000       23.60085
        49.80069      459.00000       21.42429
        49.86736      707.00000       26.58947
        49.93403      599.00000       24.47448
        50.00070      559.00000       23.64318
        50.06737      474.00000       21.77154
        50.13403      603.00000       24.55606
        50.20070      576.00000       24.00000
        50.26737      526.00000       22.93469
        50.33404      440.00000       20.97618
        50.40071      461.00000       21.47091
        50.46737      428.00000       20.68816
        50.53404      410.00000       20.24846
        50.60071      573.00000       23.93742
        50.66738      539.00000       23.21637
        50.73405      545.00000       23.34524
        50.80071      610.00000       24.69818
        50.86738      764.00000       27.64055
        50.93405      608.00000       24.65766
        51.00072      573.00000       23.93742
        51.06739      684.00000       26.15339
        51.13405      687.00000       26.21069
        51.20072      583.00000       24.14539
        51.26739      710.00000       26.64582
        51.33406      518.00000       22.75961
        51.40073      548.00000       23.40940
        51.46740      550.00000       23.45208
        51.53406      453.00000       21.28380
        51.60073      476.00000       21.81742
        51.66740      587.00000       24.22808
        51.73407      519.00000       22.78157
        51.80074      562.00000       23.70654
        51.86740      558.00000       23.62202
        51.93407      577.00000       24.02082
        52.00074      641.00000       25.31798
        52.06741      933.00000       30.54505
        52.13408     1083.00000       32.90897
        52.20074     1293.00000       35.95831
        52.26741     1576.00000       39.69887
        52.33408     2304.00000       48.00000
        52.40075     3000.00000       54.77225
        52.46741     3251.00000       57.01754
        52.53408     2937.00000       54.19410
        52.60075     2726.00000       52.21111
        52.66742     2288.00000       47.83304
        52.73409     1986.00000       44.56456
        52.80075     2039.00000       45.15529
        52.86742     2058.00000       45.36518
        52.93409     2521.00000       50.20956
        53.00076     2817.00000       53.07542
        53.06742     2264.00000       47.58151
        53.13409     1769.00000       42.05948
        53.20076     1412.00000       37.57659
        53.26743      858.00000       29.29164
        53.33410      839.00000       28.96550
        53.40076      599.00000       24.47448
        53.46743      601.00000       24.51530
        53.53410      540.00000       23.23790
        53.60077      746.00000       27.31300
        53.66744      554.00000       23.53720
        53.73410      620.00000       24.89980
        53.80077      716.00000       26.75818
        53.86744      680.00000       26.07681
        53.93411      603.00000       24.55606
        54.00078      675.00000       25.98076
        54.06745      588.00000       24.24871
        54.13411      692.00000       26.30589
        54.20078      595.00000       24.39262
        54.26745      569.00000       23.85372
        54.33412      605.00000       24.59675
        54.40079      531.00000       23.04344
        54.46745      618.00000       24.85961
        54.53412      531.00000       23.04344
        54.60079      600.00000       24.49490
        54.66746      545.00000       23.34524
        54.73413      570.00000       23.87467
        54.80079      569.00000       23.85372
        54.86746      490.00000       22.13594
        54.93413      466.00000       21.58703
        55.00080      578.00000       24.04163
        55.06747      714.00000       26.72078
        55.13413      581.00000       24.10394
        55.20080      574.00000       23.95830
        55.26747      642.00000       25.33772
        55.33414      569.00000       23.85372
        55.40081      467.00000       21.61018
        55.46747      386.00000       19.64688
        55.53414      533.00000       23.08679
        55.60081      529.00000       23.00000
        55.66748      547.00000       23.38803
        55.73415      612.00000       24.73863
        55.80082      566.00000       23.79075
        55.86748      666.00000       25.80698
        55.93415      569.00000       23.85372
        56.00082      694.00000       26.34388
        56.06749      668.00000       25.84570
        56.13416      706.00000       26.57066
        56.20082      655.00000       25.59297
        56.26749      510.00000       22.58318
        56.33416      597.00000       24.43358
        56.40083      502.00000       22.40536
        56.46749      585.00000       24.18677
        56.53416      729.00000       27.00000
        56.60083      658.00000       25.65151
        56.66750      691.00000       26.28688
        56.73417      803.00000       28.33726
        56.80083      709.00000       26.62705
        56.86750      788.00000       28.07134
        56.93417      797.00000       28.23119
        57.00084      783.00000       27.98214
        57.06750      913.00000       30.21589
        57.13417     1071.00000       32.72614
        57.20084      909.00000       30.14963
        57.26751     1210.00000       34.78505
        57.33418     1483.00000       38.50974
        57.40084     1805.00000       42.48529
        57.46751     2286.00000       47.81213
        57.53418     3174.00000       56.33826
        57.60085     4248.00000       65.17668
        57.66752     6218.00000       78.85429
        57.73418     9039.00000       95.07365
        57.80085    12248.00000      110.67068
        57.86752    13435.00000      115.90945
        57.93419    15131.00000      123.00813
        58.00086    17833.00000      133.54025
        58.06752    19367.00000      139.16537
        58.13419    15523.00000      124.59133
        58.20086    13130.00000      114.58621
        58.26753    10192.00000      100.95544
        58.33420     6477.00000       80.47981
        58.40087     4730.00000       68.77499
        58.46753     3912.00000       62.54598
        58.53420     3552.00000       59.59866
        58.60087     3387.00000       58.19794
        58.66754     4173.00000       64.59876
        58.73421     4900.00000       70.00000
        58.80087     6305.00000       79.40403
        58.86754     6516.00000       80.72174
        58.93421     4997.00000       70.68946
        59.00088     4490.00000       67.00746
        59.06755     3050.00000       55.22681
        59.13421     2097.00000       45.79301
        59.20088     1651.00000       40.63250
        59.26755     1189.00000       34.48188
        59.33422     1217.00000       34.88553
        59.40089     1032.00000       32.12476
        59.46755      973.00000       31.19295
        59.53422      909.00000       30.14963
        59.60089      897.00000       29.94996
        59.66756      783.00000       27.98214
        59.73423      787.00000       28.05352
        59.80089      764.00000       27.64055
        59.86756      712.00000       26.68333
        59.93423      899.00000       29.98333
        60.00090      656.00000       25.61250
        60.06757      774.00000       27.82086
        60.13424      658.00000       25.65151
        60.20090      720.00000       26.83282
        60.26757      555.00000       23.55844
        60.33424      548.00000       23.40940
        60.40091      645.00000       25.39685
        60.46758      665.00000       25.78759
        60.53424      630.00000       25.09980
        60.60091      654.00000       25.57342
        60.66758      612.00000       24.73863
        60.73425      547.00000       23.38803
        60.80091      586.00000       24.20744
        60.86758      655.00000       25.59297
        60.93425      729.00000       27.00000
        61.00092      571.00000       23.89561
        61.06758      364.00000       19.07878
        61.13425      430.00000       20.73644
        61.20092      681.00000       26.09598
        61.26759      545.00000       23.34524
        61.33426      671.00000       25.90367
        61.40092      671.00000       25.90367
        61.46759      644.00000       25.37716
        61.53426      450.00000       21.21320
        61.60093      567.00000       23.81176
        61.66760      572.00000       23.91652
        61.73426      620.00000       24.89980
        61.80093      449.00000       21.18962
        61.86760      468.00000       21.63331
        61.93427      565.00000       23.76973
        62.00094      663.00000       25.74879
        62.06760      372.00000       19.28730
        62.13427      597.00000       24.43358
        62.20094      572.00000       23.91652
        62.26761      633.00000       25.15949
        62.33428      384.00000       19.59592
        62.40094      703.00000       26.51415
        62.46761      750.00000       27.38613
        62.53428      521.00000       22.82542
        62.60095      539.00000       23.21637
        62.66762      518.00000       22.75961
        62.73429      616.00000       24.81935
        62.80095      503.00000       22.42766
        62.86762      554.00000       23.53720
        62.93429      501.00000       22.38303
        63.00096      433.00000       20.80865
        63.06763      480.00000       21.90890
        63.13429      615.00000       24.79919
        63.20096      545.00000       23.34524
        63.26763      504.00000       22.44994
        63.33430      459.00000       21.42429
        63.40097      476.00000       21.81742
        63.46763      567.00000       23.81176
        63.53430      495.00000       22.24860
        63.60097      536.00000       23.15167
        63.66764      455.00000       21.33073
        63.73431      539.00000       23.21637
        63.80097      445.00000       21.09502
        63.86764      597.00000       24.43358
        63.93431      623.00000       24.95997
        64.00098      428.00000       20.68816
        64.06764      560.00000       23.66432
        64.13432      771.00000       27.76689
        64.20098      385.00000       19.62142
        64.26765      549.00000       23.43075
        64.33432      699.00000       26.43861
        64.40099      407.00000       20.17424
        64.46765      640.00000       25.29822
        64.53432      738.00000       27.16615
        64.60099      561.00000       23.68544
        64.66766      714.00000       26.72078
        64.73432      581.00000       24.10394
        64.80099      710.00000       26.64582
        64.86766      537.00000       23.17326
        64.93433      548.00000       23.40940
        65.00100      557.00000       23.60085
        65.06767      547.00000       23.38803
        65.13433      592.00000       24.33105
        65.20100      502.00000       22.40536
        65.26767      571.00000       23.89561
        65.33434      474.00000       21.77154
        65.40101      665.00000       25.78759
        65.46767      697.00000       26.40076
        65.53434      597.00000       24.43358
        65.60101      518.00000       22.75961
        65.66768      476.00000       21.81742
        65.73434      495.00000       22.24860
        65.80101      656.00000       25.61250
        65.86768      459.00000       21.42429
        65.93435      608.00000       24.65766
        66.00101      632.00000       25.13961
        66.06769      566.00000       23.79075
        66.13435      595.00000       24.39262
        66.20102      635.00000       25.19921
        66.26769      715.00000       26.73948
        66.33436      630.00000       25.09980
        66.40102      698.00000       26.41969
        66.46769      615.00000       24.79919
        66.53436      596.00000       24.41311
        66.60103      690.00000       26.26785
        66.66769      713.00000       26.70206
        66.73437      610.00000       24.69818
        66.80103      687.00000       26.21069
        66.86770      617.00000       24.83949
        66.93437      764.00000       27.64055
        67.00104      663.00000       25.74879
        67.06770      645.00000       25.39685
        67.13438      718.00000       26.79552
        67.20104      816.00000       28.56571
        67.26771      852.00000       29.18904
        67.33437      926.00000       30.43025
        67.40105     1226.00000       35.01428
        67.46771     1509.00000       38.84585
        67.53438     2123.00000       46.07602
        67.60105     2433.00000       49.32545
        67.66772     3234.00000       56.86827
        67.73438     4921.00000       70.14984
        67.80106     6118.00000       78.21764
        67.86772     6007.00000       77.50484
        67.93439     5253.00000       72.47758
        68.00106     4910.00000       70.07140
        68.06773     4341.00000       65.88627
        68.13439     3692.00000       60.76183
        68.20106     3258.00000       57.07889
        68.26773     3131.00000       55.95534
        68.33440     2796.00000       52.87722
        68.40106     2941.00000       54.23099
        68.46774     3159.00000       56.20498
        68.53440     3144.00000       56.07138
        68.60107     3528.00000       59.39697
        68.66774     4421.00000       66.49060
        68.73441     6090.00000       78.03845
        68.80107     5946.00000       77.11031
        68.86774     5004.00000       70.73896
        68.93441     4050.00000       63.63961
        69.00108     3603.00000       60.02499
        69.06774     2248.00000       47.41308
        69.13441     1771.00000       42.08325
        69.20108     1252.00000       35.38361
        69.26775     1287.00000       35.87478
        69.33442      872.00000       29.52965
        69.40108     1037.00000       32.20248
        69.46775      901.00000       30.01666
        69.53442      887.00000       29.78255
        69.60109      726.00000       26.94439
        69.66776      800.00000       28.28427
        69.73443      764.00000       27.64055
        69.80109      790.00000       28.10694
        69.86776      691.00000       26.28688
        69.93443      582.00000       24.12468
        70.00110      650.00000       25.49510
        70.06776      726.00000       26.94439
        70.13443      720.00000       26.83282
        70.20110      600.00000       24.49490
        70.26777      713.00000       26.70206
        70.33443      692.00000       26.30589
        70.40111      601.00000       24.51530
        70.46777      585.00000       24.18677
        70.53444      555.00000       23.55844
        70.60111      750.00000       27.38613
        70.66778      629.00000       25.07987
        70.73444      509.00000       22.56103
        70.80111      679.00000       26.05763
        70.86778      627.00000       25.03997
        70.93445      635.00000       25.19921
        71.00111      533.00000       23.08679
        71.06779      413.00000       20.32240
        71.13445      467.00000       21.61018
        71.20112      567.00000       23.81176
        71.26779      694.00000       26.34388
        71.33446      675.00000       25.98076
        71.40112      687.00000       26.21069
        71.46780      649.00000       25.47548
        71.53446      621.00000       24.91987
        71.60113      765.00000       27.65863
        71.66779      641.00000       25.31798
        71.73447      730.00000       27.01851
        71.80113      579.00000       24.06242
        71.86780      533.00000       23.08679
        71.93447      521.00000       22.82542
        72.00114      651.00000       25.51470
        72.06780      660.00000       25.69047
        72.13448      770.00000       27.74887
        72.20114      764.00000       27.64055
        72.26781      750.00000       27.38613
        72.33448      951.00000       30.83829
        72.40115      894.00000       29.89983
        72.46781     1047.00000       32.35738
        72.53448     1338.00000       36.57868
        72.60115     1812.00000       42.56759
        72.66782     1659.00000       40.73082
        72.73448     1545.00000       39.30649
        72.80116     1708.00000       41.32796
        72.86782     1695.00000       41.17038
        72.93449     1856.00000       43.08132
        73.00116     1989.00000       44.59821
        73.06783     2326.00000       48.22862
        73.13449     1917.00000       43.78356
        73.20116     1607.00000       40.08741
        73.26783     1473.00000       38.37968
        73.33450     1268.00000       35.60899
        73.40116     1089.00000       33.00000
        73.46783      856.00000       29.25748
        73.53450      847.00000       29.10326
        73.60117      805.00000       28.37252
        73.66784      813.00000       28.51315
        73.73450      699.00000       26.43861
        73.80117      916.00000       30.26549
        73.86784      941.00000       30.67572
        73.93451     1060.00000       32.55764
        74.00117     1147.00000       33.86739
        74.06785      839.00000       28.96550
        74.13451     1022.00000       31.96873
        74.20118      961.00000       31.00000
        74.26785      908.00000       30.13304
        74.33452      652.00000       25.53429
        74.40118      523.00000       22.86919
        74.46785      507.00000       22.51666
        74.53452      535.00000       23.13007
        74.60119      521.00000       22.82542
        74.66785      557.00000       23.60085
        74.73453      440.00000       20.97618
        74.80119      592.00000       24.33105
        74.86786      642.00000       25.33772
        74.93453      561.00000       23.68544
        75.00120      432.00000       20.78461
        75.06786      493.00000       22.20360
        75.13453      797.00000       28.23119
        75.20120      678.00000       26.03843
        75.26787      504.00000       22.44994
        75.33453      653.00000       25.55387
        75.40121      657.00000       25.63201
        75.46787      797.00000       28.23119
        75.53454      667.00000       25.82634
        75.60121      475.00000       21.79449
        75.66788      520.00000       22.80351
        75.73454      497.00000       22.29350
        75.80122      460.00000       21.44761
        75.86788      604.00000       24.57641
        75.93455      589.00000       24.26932
        76.00121      453.00000       21.28380
        76.06789      572.00000       23.91652
        76.13455      509.00000       22.56103
        76.20122      619.00000       24.87971
        76.26789      484.00000       22.00000
        76.33456      670.00000       25.88436
        76.40122      574.00000       23.95830
        76.46790      674.00000       25.96151
        76.53456      638.00000       25.25866
        76.60123      691.00000       26.28688
        76.66790      566.00000       23.79075
        76.73457      761.00000       27.58623
        76.80123      639.00000       25.27845
        76.86790      899.00000       29.98333
        76.93457     1114.00000       33.37664
        77.00124     1131.00000       33.63034
        77.06790     1602.00000       40.02499
        77.13457     2017.00000       44.91102
        77.20124     2872.00000       53.59105
        77.26791     3884.00000       62.32175
        77.33458     5426.00000       73.66138
        77.40125     6305.00000       79.40403
        77.46791     5832.00000       76.36753
        77.53458     5321.00000       72.94518
        77.60125     5139.00000       71.68682
        77.66792     4903.00000       70.02142
        77.73458     4423.00000       66.50564
        77.80125     3843.00000       61.99194
        77.86792     3943.00000       62.79331
        77.93459     4530.00000       67.30527
        78.00126     5634.00000       75.05997
        78.06792     6054.00000       77.80746
        78.13459     5460.00000       73.89182
        78.20126     4117.00000       64.16386
        78.26793     3893.00000       62.39391
        78.33459     3266.00000       57.14893
        78.40127     2236.00000       47.28636
        78.46793     1755.00000       41.89272
        78.53460     1471.00000       38.35362
        78.60126     1169.00000       34.19064
        78.66794     1022.00000       31.96873
        78.73460      924.00000       30.39737
        78.80127      907.00000       30.11644
        78.86794      782.00000       27.96426
        78.93461      842.00000       29.01724
        79.00127      536.00000       23.15167
        79.06795      835.00000       28.89637
        79.13461      674.00000       25.96151
        79.20128      680.00000       26.07681
        79.26795      706.00000       26.57066
        79.33462      456.00000       21.35416
        79.40128      713.00000       26.70206
        79.46795      598.00000       24.45404
        79.53462      471.00000       21.70253
        79.60129      542.00000       23.28089
        79.66795      659.00000       25.67100
        79.73463      593.00000       24.35159
        79.80129      458.00000       21.40093
        79.86796      465.00000       21.56386
        79.93463      576.00000       24.00000
        80.00130      556.00000       23.57965
        80.06796      583.00000       24.14539
        80.13464      629.00000       25.07987
        80.20130      653.00000       25.55387
        80.26797      531.00000       23.04344
        80.33463      464.00000       21.54066
        80.40131      521.00000       22.82542
        80.46797      462.00000       21.49418
        80.53464      542.00000       23.28089
        80.60131      501.00000       22.38303
        80.66798      702.00000       26.49528
        80.73464      464.00000       21.54066
        80.80132      696.00000       26.38181
        80.86798      727.00000       26.96294
        80.93465      665.00000       25.78759
        81.00132      673.00000       25.94224
        81.06799      961.00000       31.00000
        81.13465      759.00000       27.54996
        81.20132      667.00000       25.82634
        81.26799      645.00000       25.39685
        81.33466      623.00000       24.95997
        81.40132      681.00000       26.09598
        81.46799      761.00000       27.58623
        81.53466      975.00000       31.22499
        81.60133      957.00000       30.93542
        81.66800     1255.00000       35.42598
        81.73466     1433.00000       37.85499
        81.80133     1354.00000       36.79674
        81.86800     1436.00000       37.89459
        81.93467     1500.00000       38.72983
        82.00134     1587.00000       39.83717
        82.06800     1808.00000       42.52058
        82.13467     2115.00000       45.98913
        82.20134     2214.00000       47.05316
        82.26801     1856.00000       43.08132
        82.33468     1721.00000       41.48494
        82.40134     1739.00000       41.70132
        82.46801     1410.00000       37.54996
        82.53468     1271.00000       35.65109
        82.60135     1062.00000       32.58834
        82.66801      881.00000       29.68164
        82.73469      981.00000       31.32092
        82.80135     1007.00000       31.73326
        82.86802      892.00000       29.86637
        82.93468      986.00000       31.40064
        83.00136     1047.00000       32.35738
        83.06802     1190.00000       34.49638
        83.13469     1306.00000       36.13862
        83.20136     1162.00000       34.08812
        83.26803     1018.00000       31.90611
        83.33469     1014.00000       31.84337
        83.40137      967.00000       31.09662
        83.46803      733.00000       27.07397
        83.53470      805.00000       28.37252
        83.60137      549.00000       23.43075
        83.66804      637.00000       25.23886
        83.73470      706.00000       26.57066
        83.80137      612.00000       24.73863
        83.86804      482.00000       21.95450
        83.93471      354.00000       18.81489
        84.00137      723.00000       26.88866
        84.06805      680.00000       26.07681
        84.13471      629.00000       25.07987
        84.20138      399.00000       19.97499
        84.26805      605.00000       24.59675
        84.33472      477.00000       21.84033
        84.40138      558.00000       23.62202
        84.46806      521.00000       22.82542
        84.53472      545.00000       23.34524
        84.60139      627.00000       25.03997
        84.66805      559.00000       23.64318
        84.73473      409.00000       20.22375
        84.80139      428.00000       20.68816
        84.86806      410.00000       20.24846
        84.93473      447.00000       21.14237
        85.00140      450.00000       21.21320
        85.06806      410.00000       20.24846
        85.13474      383.00000       19.57038
        85.20140      629.00000       25.07987
        85.26807      499.00000       22.33831
        85.33474      580.00000       24.08319
        85.40141      579.00000       24.06242
        85.46807      494.00000       22.22611
        85.53474      739.00000       27.18456
        85.60141      510.00000       22.58318
        85.66808      727.00000       26.96294
        85.73474      603.00000       24.55606
        85.80141      592.00000       24.33105
        85.86808      624.00000       24.97999
        85.93475      704.00000       26.53300
        86.00142      670.00000       25.88436
        86.06808      840.00000       28.98275
        86.13475     1164.00000       34.11744
        86.20142     1455.00000       38.14446
        86.26809     2052.00000       45.29901
        86.33475     2841.00000       53.30103
        86.40142     3348.00000       57.86190
        86.46809     2629.00000       51.27377
        86.53476     2187.00000       46.76537
        86.60143     2215.00000       47.06379
        86.66810     2308.00000       48.04165
        86.73476     1741.00000       41.72529
        86.80143     1255.00000       35.42598
        86.86810     1067.00000       32.66497
        86.93477     1061.00000       32.57299
        87.00143      842.00000       29.01724
        87.06811      989.00000       31.44837
        87.13477      794.00000       28.17801
        87.20144      721.00000       26.85144
        87.26810      774.00000       27.82086
        87.33478      693.00000       26.32489
        87.40144      750.00000       27.38613
        87.46811      399.00000       19.97499
        87.53478      534.00000       23.10844
        87.60145      466.00000       21.58703
        87.66811      718.00000       26.79552
        87.73479      498.00000       22.31591
        87.80145      813.00000       28.51315
        87.86812      718.00000       26.79552
        87.93479      715.00000       26.73948
        88.00146      923.00000       30.38091
        88.06812      906.00000       30.09983
        88.13479     1216.00000       34.87119
        88.20146     1354.00000       36.79674
        88.26813     1196.00000       34.58323
        88.33479      942.00000       30.69202
        88.40147     1025.00000       32.01562
        88.46813      982.00000       31.33688
        88.53480      813.00000       28.51315
        88.60147      718.00000       26.79552
        88.66814      523.00000       22.86919
        88.73480      492.00000       22.18107
        88.80148      529.00000       23.00000
        88.86814      561.00000       23.68544
        88.93481      594.00000       24.37212
        89.00147      505.00000       22.47220
        89.06815      548.00000       23.40940
        89.13481      440.00000       20.97618
        89.20148      416.00000       20.39608
        89.26815      586.00000       24.20744
        89.33482      536.00000       23.15167
        89.40148      483.00000       21.97726
        89.46815      551.00000       23.47339
        89.53482      473.00000       21.74856
        89.60149      480.00000       21.90890
        89.66816      634.00000       25.17936
        89.73483      542.00000       23.28089
        89.80149      399.00000       19.97499
        89.86816      639.00000       25.27845
        89.93483      512.00000       22.62742
        90.00150      475.00000       21.79449
        90.06816      616.00000       24.81935
        90.13483      584.00000       24.16609
        90.20150      713.00000       26.70206
        90.26817      704.00000       26.53300
        90.33484      759.00000       27.54996
        90.40150      638.00000       25.25866
        90.46817      858.00000       29.29164
        90.53484     1010.00000       31.78050
        90.60151     1073.00000       32.75668
        90.66817     1343.00000       36.64697
        90.73484     1167.00000       34.16138
        90.80151      994.00000       31.52777
        90.86818     1012.00000       31.81195
        90.93484     1062.00000       32.58834
        91.00152     1055.00000       32.48076
        91.06818      971.00000       31.16087
        91.13485      789.00000       28.08914
        91.20152      869.00000       29.47881
        91.26819      747.00000       27.33130
        91.33485      733.00000       27.07397
        91.40153      633.00000       25.15949
        91.46819      640.00000       25.29822
        91.53486      759.00000       27.54996
        91.60152      638.00000       25.25866
        91.66820      697.00000       26.40076
        91.73486      854.00000       29.22328
        91.80153      720.00000       26.83282
        91.86820      996.00000       31.55947
        91.93487     1212.00000       34.81379
        92.00153     1190.00000       34.49638
        92.06821     1016.00000       31.87475
        92.13487      910.00000       30.16621
        92.20154     1008.00000       31.74902
        92.26821      813.00000       28.51315
        92.33488      752.00000       27.42262
        92.40154      840.00000       28.98275
        92.46821      701.00000       26.47640
        92.53488      777.00000       27.87472
        92.60155      582.00000       24.12468
        92.66821      836.00000       28.91366
        92.73489      510.00000       22.58318
        92.80155      469.00000       21.65641
        92.86822      551.00000       23.47339
        92.93489      708.00000       26.60827
        93.00156      672.00000       25.92296
        93.06822      444.00000       21.07131
        93.13490      537.00000       23.17326
        93.20156      593.00000       24.35159
        93.26823      537.00000       23.17326
        93.33489      651.00000       25.51470
        93.40157      560.00000       23.66432
        93.46823      568.00000       23.83275
        93.53490      560.00000       23.66432
        93.60157      578.00000       24.04163
        93.66824      671.00000       25.90367
        93.73490      507.00000       22.51666
        93.80157      716.00000       26.75818
        93.86824      677.00000       26.01922
        93.93491      692.00000       26.30589
        94.00158      660.00000       25.69047
        94.06824      687.00000       26.21069
        94.13491      676.00000       26.00000
        94.20158      485.00000       22.02271
        94.26825      615.00000       24.79919
        94.33492      938.00000       30.62679
        94.40158      933.00000       30.54505
        94.46825      921.00000       30.34798
        94.53492     1009.00000       31.76476
        94.60159     1070.00000       32.71085
        94.66826     1091.00000       33.03029
        94.73492     1446.00000       38.02631
        94.80159     1527.00000       39.07685
        94.86826     2228.00000       47.20169
        94.93493     2768.00000       52.61179
        95.00159     4169.00000       64.56779
        95.06826     5150.00000       71.76350
        95.13493     5639.00000       75.09328
        95.20160     5923.00000       76.96103
        95.26826     6535.00000       80.83935
        95.33494     6920.00000       83.18654
        95.40160     6003.00000       77.47903
        95.46827     5446.00000       73.79702
        95.53494     4850.00000       69.64194
        95.60161     4666.00000       68.30813
        95.66827     4596.00000       67.79381
        95.73495     4303.00000       65.59726
        95.80161     4227.00000       65.01538
        95.86828     4607.00000       67.87489
        95.93494     5197.00000       72.09022
        96.00162     4916.00000       70.11419
        96.06828     4178.00000       64.63745
        96.13495     3500.00000       59.16080
        96.20162     3347.00000       57.85326
        96.26829     3175.00000       56.34714
        96.33495     2930.00000       54.12947
        96.40163     2212.00000       47.03190
        96.46829     1815.00000       42.60282
        96.53496     1590.00000       39.87481
        96.60163     1367.00000       36.97296
        96.66830     1174.00000       34.26368
        96.73496     1306.00000       36.13862
        96.80163     1367.00000       36.97296
        96.86830     1928.00000       43.90900
        96.93497     2335.00000       48.32184
        97.00163     2901.00000       53.86093
        97.06831     3475.00000       58.94913
        97.13497     3385.00000       58.18075
        97.20164     2671.00000       51.68172
        97.26831     2206.00000       46.96807
        97.33498     2233.00000       47.25463
        97.40164     2175.00000       46.63689
        97.46832     2142.00000       46.28175
        97.53498     1553.00000       39.40812
        97.60165     1060.00000       32.55764
        97.66831     1078.00000       32.83291
        97.73499      873.00000       29.54657
        97.80165      822.00000       28.67054
        97.86832      774.00000       27.82086
        97.93499      716.00000       26.75818
        98.00166      785.00000       28.01785
        98.06832      901.00000       30.01666
        98.13499      699.00000       26.43861
        98.20166      767.00000       27.69477
        98.26833      607.00000       24.63737
        98.33500      595.00000       24.39262
        98.40166      514.00000       22.67157
        98.46833      682.00000       26.11513
        98.53500      554.00000       23.53720
        98.60167      689.00000       26.24881
        98.66833      712.00000       26.68333
        98.73500      638.00000       25.25866
        98.80167      753.00000       27.44085
        98.86834      923.00000       30.38091
        98.93501      642.00000       25.33772
        99.00168      598.00000       24.45404
        99.06834      725.00000       26.92582
        99.13501      690.00000       26.26785
        99.20168      437.00000       20.90454
        99.26835      597.00000       24.43358
        99.33501      480.00000       21.90890
        99.40168      508.00000       22.53885
        99.46835      605.00000       24.59675
        99.53502      664.00000       25.76820
        99.60168      740.00000       27.20294
        99.66836      609.00000       24.67793
        99.73502      586.00000       24.20744
        99.80169      621.00000       24.91987
        99.86836      590.00000       24.28992
        99.93503      500.00000       22.36068
       100.00169      427.00000       20.66398
       100.06837      453.00000       21.28380
       100.13503      540.00000       23.23790
       100.20170      374.00000       19.33908
       100.26836      460.00000       21.44761
       100.33504      495.00000       22.24860
       100.40170      620.00000       24.89980
       100.46837      442.00000       21.02380
       100.53504      515.00000       22.69361
       100.60171      702.00000       26.49528
       100.66837      627.00000       25.03997
       100.73505      399.00000       19.97499
       100.80171      715.00000       26.73948
       100.86838      430.00000       20.73644
       100.93505      634.00000       25.17936
       101.00172      535.00000       23.13007
       101.06838      760.00000       27.56810
       101.13505      539.00000       23.21637
       101.20172      670.00000       25.88436
       101.26839      512.00000       22.62742
       101.33505      567.00000       23.81176
       101.40173      732.00000       27.05550
       101.46839      464.00000       21.54066
       101.53506      577.00000       24.02082
       101.60173      559.00000       23.64318
       101.66840      888.00000       29.79933
       101.73506      420.00000       20.49390
       101.80173      425.00000       20.61553
       101.86840      432.00000       20.78461
       101.93507      404.00000       20.09975
       102.00173      454.00000       21.30728
       102.06841      603.00000       24.55606
       102.13507      452.00000       21.26029
       102.20174      693.00000       26.32489
       102.26841      540.00000       23.23790
       102.33508      579.00000       24.06242
       102.40174      574.00000       23.95830
       102.46841      392.00000       19.79899
       102.53508      730.00000       27.01851
       102.60175      621.00000       24.91987
       102.66842      603.00000       24.55606
       102.73508      563.00000       23.72762
       102.80175      579.00000       24.06242
       102.86842      653.00000       25.55387
       102.93509      708.00000       26.60827
       103.00175      467.00000       21.61018
       103.06842      576.00000       24.00000
       103.13509      516.00000       22.71563
       103.20176      455.00000       21.33073
       103.26842      601.00000       24.51530
       103.33510      643.00000       25.35744
       103.40176      490.00000       22.13594
       103.46843      419.00000       20.46949
       103.53510      601.00000       24.51530
       103.60177      324.00000       18.00000
       103.66843      593.00000       24.35159
       103.73510      594.00000       24.37212
       103.80177      481.00000       21.93171
       103.86844      523.00000       22.86919
       103.93510      386.00000       19.64688
       104.00178      478.00000       21.86321
       104.06844      647.00000       25.43620
       104.13511      455.00000       21.33073
       104.20178      487.00000       22.06808
       104.26845      473.00000       21.74856
       104.33511      618.00000       24.85961
       104.40179      559.00000       23.64318
       104.46845      841.00000       29.00000
       104.53512      819.00000       28.61818
       104.60178      642.00000       25.33772
       104.66846      761.00000       27.58623
       104.73512     1065.00000       32.63434
       104.80179     1180.00000       34.35113
       104.86846     1374.00000       37.06750
       104.93513     1829.00000       42.76681
       105.00179     2236.00000       47.28636
       105.06847     2016.00000       44.89989
       105.13513     1850.00000       43.01163
       105.20180     1573.00000       39.66106
       105.26847     1771.00000       42.08325
       105.33514     1504.00000       38.78144
       105.40180     1471.00000       38.35362
       105.46847     1291.00000       35.93049
       105.53514     1039.00000       32.23352
       105.60181     1019.00000       31.92178
       105.66847      830.00000       28.80972
       105.73515      698.00000       26.41969
       105.80181      775.00000       27.83882
       105.86848      736.00000       27.12932
       105.93515      679.00000       26.05763
       106.00182      544.00000       23.32381
       106.06848      484.00000       22.00000
       106.13515      725.00000       26.92582
       106.20182      652.00000       25.53429
       106.26849      337.00000       18.35756
       106.33515      595.00000       24.39262
       106.40182      509.00000       22.56103
       106.46849      499.00000       22.33831
       106.53516      584.00000       24.16609
       106.60183      505.00000       22.47220
       106.66850      563.00000       23.72762
       106.73516      500.00000       22.36068
       106.80183      453.00000       21.28380
       106.86850      632.00000       25.13961
       106.93517      503.00000       22.42766
       107.00184      634.00000       25.17936
       107.06850      325.00000       18.02776
       107.13517      462.00000       21.49418
       107.20184      501.00000       22.38303
       107.26851      527.00000       22.95648
       107.33517      633.00000       25.15949
       107.40184      425.00000       20.61553
       107.46851      495.00000       22.24860
       107.53518      410.00000       20.24846
       107.60184      386.00000       19.64688
       107.66852      627.00000       25.03997
       107.73518      404.00000       20.09975
       107.80185      378.00000       19.44222
       107.86852      597.00000       24.43358
       107.93519      351.00000       18.73499
       108.00185      481.00000       21.93171
       108.06852      395.00000       19.87461
       108.13519      520.00000       22.80351
       108.20186      621.00000       24.91987
       108.26852      526.00000       22.93469
       108.33520      486.00000       22.04541
       108.40186      594.00000       24.37212
       108.46853      552.00000       23.49468
       108.53520      596.00000       24.41311
       108.60187      640.00000       25.29822
       108.66853      707.00000       26.58947
       108.73521      846.00000       29.08608
       108.80187      994.00000       31.52777
       108.86854     1070.00000       32.71085
       108.93520      961.00000       31.00000
       109.00188     1174.00000       34.26368
       109.06854     1096.00000       33.10589
       109.13521     1280.00000       35.77709
       109.20188     1484.00000       38.52272
       109.26855     1912.00000       43.72642
       109.33521     1573.00000       39.66106
       109.40189     1277.00000       35.73514
       109.46855     1186.00000       34.43835
       109.53522     1015.00000       31.85906
       109.60189     1122.00000       33.49627
       109.66856     1207.00000       34.74191
       109.73522     1204.00000       34.69870
       109.80189     1053.00000       32.44996
       109.86856      810.00000       28.46050
       109.93523      926.00000       30.43025
       110.00189      912.00000       30.19934
       110.06857      935.00000       30.57777
       110.13523      858.00000       29.29164
       110.20190     1320.00000       36.33180
       110.26857     1045.00000       32.32646
       110.33524      901.00000       30.01666
       110.40190      842.00000       29.01724
       110.46857      793.00000       28.16026
       110.53524      750.00000       27.38613
       110.60191      861.00000       29.34280
       110.66857      666.00000       25.80698
       110.73524      564.00000       23.74868
       110.80191      455.00000       21.33073
       110.86858      526.00000       22.93469
       110.93525      684.00000       26.15339
       111.00191      511.00000       22.60531
       111.06858      639.00000       25.27845
       111.13525      574.00000       23.95830
       111.20192      540.00000       23.23790
       111.26859      488.00000       22.09072
       111.33526      635.00000       25.19921
       111.40192      515.00000       22.69361
       111.46859      561.00000       23.68544
       111.53526      365.00000       19.10497
       111.60193      751.00000       27.40438
       111.66859      608.00000       24.65766
       111.73526      449.00000       21.18962
       111.80193      699.00000       26.43861
       111.86860      474.00000       21.77154
       111.93526      475.00000       21.79449
       112.00194      530.00000       23.02173
       112.06860      640.00000       25.29822
       112.13527      500.00000       22.36068
       112.20194      593.00000       24.35159
       112.26861      526.00000       22.93469
       112.33527      498.00000       22.31591
       112.40194      335.00000       18.30301
       112.46861      586.00000       24.20744
       112.53528      533.00000       23.08679
       112.60194      544.00000       23.32381
       112.66862      468.00000       21.63331
       112.73528      549.00000       23.43075
       112.80195      608.00000       24.65766
       112.86862      491.00000       22.15852
       112.93529      513.00000       22.64950
       113.00195      651.00000       25.51470
       113.06863      597.00000       24.43358
       113.13529      914.00000       30.23243
       113.20196      745.00000       27.29469
       113.26862      871.00000       29.51271
       113.33530     1124.00000       33.52611
       113.40196     1595.00000       39.93745
       113.46863     1901.00000       43.60046
       113.53530     2167.00000       46.55105
       113.60197     2383.00000       48.81598
       113.66863     2392.00000       48.90808
       113.73531     2616.00000       51.14685
       113.80197     2842.00000       53.31041
       113.86864     2650.00000       51.47815
       113.93531     2603.00000       51.01960
       114.00198     2642.00000       51.40039
       114.06864     2509.00000       50.08992
       114.13531     2637.00000       51.35173
       114.20198     2643.00000       51.41011
       114.26865     2868.00000       53.55371
       114.33531     3211.00000       56.66569
       114.40199     3711.00000       60.91798
       114.46865     4296.00000       65.54388
       114.53532     4230.00000       65.03845
       114.60199     3549.00000       59.57348
       114.66866     2864.00000       53.51635
       114.73532     2779.00000       52.71622
       114.80199     2559.00000       50.58656
       114.86866     2755.00000       52.48809
       114.93533     2782.00000       52.74467
       115.00199     2548.00000       50.47772
       115.06866     1932.00000       43.95452
       115.13533     1901.00000       43.60046
       115.20200     1585.00000       39.81206
       115.26867     1539.00000       39.23009
       115.33533     1381.00000       37.16181
       115.40200     1435.00000       37.88139
       115.46867     1579.00000       39.73663
       115.53534     1844.00000       42.94182
       115.60201     2243.00000       47.36032
       115.66868     2686.00000       51.82663
       115.73534     3054.00000       55.26301
       115.80201     2653.00000       51.50728
       115.86868     2128.00000       46.13025
       115.93535     1733.00000       41.62932
       116.00201     1811.00000       42.55585
       116.06868     1817.00000       42.62628
       116.13535     1746.00000       41.78516
       116.20202     1748.00000       41.80909
       116.26868     1657.00000       40.70626
       116.33536     1478.00000       38.44477
       116.40202     1093.00000       33.06055
       116.46869      728.00000       26.98148
       116.53536      767.00000       27.69477
       116.60203      720.00000       26.83282
       116.66869      568.00000       23.83275
       116.73536      589.00000       24.26932
       116.80203      630.00000       25.09980
       116.86870      574.00000       23.95830
       116.93536      436.00000       20.88061
       117.00204      680.00000       26.07681
       117.06870      451.00000       21.23676
       117.13537      400.00000       20.00000
       117.20204      594.00000       24.37212
       117.26871      421.00000       20.51828
       117.33537      262.00000       16.18641
       117.40204      578.00000       24.04163
       117.46871      298.00000       17.26268
       117.53538      473.00000       21.74856
       117.60204      476.00000       21.81742
       117.66872      416.00000       20.39608
       117.73538      538.00000       23.19483
       117.80205      496.00000       22.27106
       117.86872      408.00000       20.19901
       117.93539      494.00000       22.22611
       118.00205      478.00000       21.86321
       118.06873      431.00000       20.76054
       118.13539      539.00000       23.21637
       118.20206      431.00000       20.76054
       118.26872      427.00000       20.66398
       118.33540      514.00000       22.67157
       118.40206      564.00000       23.74868
       118.46873      587.00000       24.22808
       118.53540     1041.00000       32.26453
       118.60207      805.00000       28.37252
       118.66873      681.00000       26.09598
       118.73540      540.00000       23.23790
       118.80207      491.00000       22.15852
       118.86874      461.00000       21.47091
       118.93541      738.00000       27.16615
       119.00208      642.00000       25.33772
       119.06874      653.00000       25.55387
       119.13541      826.00000       28.74022
       119.20208      500.00000       22.36068
       119.26875      494.00000       22.22611
       119.33541      535.00000       23.13007
       119.40208      398.00000       19.94994
       119.46875      508.00000       22.53885
       119.53542      354.00000       18.81489
       119.60209      599.00000       24.47448
       119.66875      365.00000       19.10497
       119.73542      402.00000       20.04994
       119.80209      397.00000       19.92486
       119.86876      499.00000       22.33831
       119.93542      397.00000       19.92486
       120.00209      396.00000       19.89975
