# XYDATA igartucuel Sr2ScSbO6 @327C (600K) 2theta 
# INTER        1       1       0     0.100000
# TEMP       327.000      327.000      327.000
# d2b Date 12-Sep-08 Time 20:31:58 Run 051320 /d2bcal072.2d 51311>51320
# d2b Date 12-Sep-08 Time 20:31:58 Run 051320 /d2bcal072.2d 51311>51320
# Monitor/counts, Counting time/sec:        225000.00       225000.00
   0.0000             0.000       0.000
   0.0500             0.000       0.000
   0.1000             3.094       6.074
   0.1500            25.980      13.460
   0.2000            10.445       5.026
   0.2500            21.801       9.075
   0.3000            25.867       8.377
   0.3500            37.364       9.611
   0.4000            31.478       8.112
   0.4500            33.225       9.969
   0.5000            25.801       6.635
   0.5500            26.467       6.676
   0.6000            19.553       5.724
   0.6500            32.265       7.328
   0.7000            29.158       6.273
   0.7500            33.746       7.404
   0.8000            33.579       7.057
   0.8500            31.655       6.826
   0.9000            31.425       6.029
   0.9500            38.761       7.028
   1.0000            30.010       6.243
   1.0500            34.698       6.834
   1.1000            36.843       6.008
   1.1500            29.580       5.621
   1.2000            35.063       5.960
   1.2500            31.214       5.392
   1.3000            34.205       5.450
   1.3500            31.007       5.026
   1.4000            30.955       5.865
   1.4500            31.153       5.194
   1.5000            34.362       5.257
   1.5500            33.389       4.588
   1.6000            28.857       4.607
   1.6500            29.245       4.266
   1.7000            34.200       4.833
   1.7500            35.832       4.652
   1.8000            37.986       5.419
   1.8500            37.422       4.842
   1.9000            31.763       4.819
   1.9500            29.781       4.366
   2.0000            30.898       4.989
   2.0500            38.570       4.724
   2.1000            34.955       4.787
   2.1500            36.180       4.377
   2.2000            36.661       4.619
   2.2500            35.658       4.449
   2.3000            34.192       4.401
   2.3500            30.694       4.020
   2.4000            34.840       4.431
   2.4500            34.317       4.198
   2.5000            33.590       4.217
   2.5500            39.181       4.528
   2.6000            34.525       4.540
   2.6500            34.386       3.902
   2.7000            33.394       3.513
   2.7500            37.447       3.961
   2.8000            31.858       3.636
   2.8500            31.456       3.724
   2.9000            34.098       3.549
   2.9500            37.283       3.913
   3.0000            40.116       3.787
   3.0500            39.080       3.907
   3.1000            39.181       3.940
   3.1500            35.945       3.864
   3.2000            37.432       3.710
   3.2500            37.724       4.025
   3.3000            38.171       3.857
   3.3500            38.520       3.815
   3.4000            36.903       3.604
   3.4500            36.418       3.620
   3.5000            35.082       3.612
   3.5500            32.686       3.625
   3.6000            36.617       3.756
   3.6500            40.192       4.069
   3.7000            40.594       3.867
   3.7500            42.030       4.030
   3.8000            41.102       3.874
   3.8500            39.159       3.882
   3.9000            40.825       4.020
   3.9500            37.396       3.967
   4.0000            35.669       3.420
   4.0500            38.973       3.500
   4.1000            37.124       3.539
   4.1500            33.805       3.243
   4.2000            34.537       3.222
   4.2500            36.595       3.204
   4.3000            37.972       3.383
   4.3500            38.248       3.155
   4.4000            39.577       3.343
   4.4500            40.980       3.496
   4.5000            38.295       3.287
   4.5500            38.008       3.224
   4.6000            38.804       3.325
   4.6500            45.690       3.392
   4.7000            42.661       3.442
   4.7500            45.829       3.434
   4.8000            44.129       3.558
   4.8500            44.624       3.419
   4.9000            49.283       3.694
   4.9500            46.815       3.453
   5.0000            47.122       3.592
   5.0500            50.324       3.654
   5.1000            50.376       3.835
   5.1500            51.069       3.671
   5.2000            48.661       3.840
   5.2500            51.728       3.676
   5.3000            53.710       3.804
   5.3500            55.328       3.779
   5.4000            57.785       3.694
   5.4500            54.649       3.741
   5.5000            58.402       3.858
   5.5500            57.968       3.437
   5.6000            57.174       3.382
   5.6500            62.563       3.691
   5.7000            64.731       3.546
   5.7500            68.731       3.628
   5.8000            69.962       3.671
   5.8500            72.247       3.778
   5.9000            76.905       3.670
   5.9500            83.804       3.861
   6.0000            88.040       3.849
   6.0500            90.847       4.019
   6.1000            93.570       3.946
   6.1500            95.480       4.008
   6.2000           101.628       4.099
   6.2500           108.140       4.177
   6.3000           108.091       4.077
   6.3500           113.200       4.320
   6.4000           111.084       4.185
   6.4500           124.186       4.361
   6.5000           131.701       4.286
   6.5500           129.777       4.450
   6.6000           136.985       4.446
   6.6500           151.204       4.676
   6.7000           152.539       4.501
   6.7500           155.275       4.410
   6.8000           155.576       4.400
   6.8500           159.095       4.431
   6.9000           166.536       4.462
   6.9500           172.242       4.604
   7.0000           175.720       4.722
   7.0500           184.900       4.803
   7.1000           190.098       4.755
   7.1500           188.034       4.778
   7.2000           185.959       4.714
   7.2500           193.005       4.732
   7.3000           197.022       4.924
   7.3500           203.696       4.906
   7.4000           206.879       4.941
   7.4500           218.734       5.070
   7.5000           221.746       5.075
   7.5500           228.341       5.168
   7.6000           227.076       5.209
   7.6500           227.113       5.215
   7.7000           237.182       5.335
   7.7500           239.116       5.259
   7.8000           241.003       5.311
   7.8500           247.393       5.365
   7.9000           244.797       5.313
   7.9500           254.298       5.448
   8.0000           265.517       5.508
   8.0500           263.733       5.517
   8.1000           269.525       5.645
   8.1500           266.509       5.541
   8.2000           269.560       5.635
   8.2500           271.379       5.619
   8.3000           277.569       5.682
   8.3500           279.794       5.698
   8.4000           279.506       5.682
   8.4500           284.920       5.828
   8.5000           287.878       5.743
   8.5500           289.374       5.797
   8.6000           293.562       5.869
   8.6500           297.920       5.891
   8.7000           305.447       5.983
   8.7500           303.283       5.938
   8.8000           295.246       5.836
   8.8500           304.615       5.950
   8.9000           297.921       5.886
   8.9500           304.423       5.930
   9.0000           302.070       5.911
   9.0500           295.662       5.815
   9.1000           316.676       6.085
   9.1500           302.364       5.881
   9.2000           298.270       5.957
   9.2500           304.058       5.898
   9.3000           302.557       5.843
   9.3500           305.399       5.938
   9.4000           304.723       5.853
   9.4500           301.757       5.914
   9.5000           302.584       5.862
   9.5500           305.778       5.848
   9.6000           303.431       5.842
   9.6500           306.442       5.862
   9.7000           302.848       5.822
   9.7500           296.636       5.802
   9.8000           301.506       5.808
   9.8500           304.808       5.893
   9.9000           299.536       5.824
   9.9500           299.513       5.841
  10.0000           298.606       5.846
  10.0500           298.375       5.781
  10.1000           294.616       5.714
  10.1500           295.738       5.779
  10.2000           292.107       5.742
  10.2500           293.008       5.726
  10.3000           295.843       5.737
  10.3500           287.915       5.682
  10.4000           289.061       5.644
  10.4500           294.806       5.708
  10.5000           291.113       5.710
  10.5500           297.126       5.737
  10.6000           294.860       5.704
  10.6500           287.299       5.649
  10.7000           286.028       5.643
  10.7500           277.940       5.541
  10.8000           281.469       5.591
  10.8500           275.257       5.539
  10.9000           268.549       5.539
  10.9500           281.328       5.565
  11.0000           287.535       5.665
  11.0500           289.219       5.680
  11.1000           288.444       5.655
  11.1500           290.699       5.623
  11.2000           286.407       5.603
  11.2500           287.182       5.599
  11.3000           291.505       5.627
  11.3500           295.340       5.668
  11.4000           288.706       5.603
  11.4500           275.768       5.502
  11.5000           277.299       5.567
  11.5500           275.265       5.567
  11.6000           283.204       5.631
  11.6500           283.666       5.553
  11.7000           277.395       5.498
  11.7500           279.313       5.617
  11.8000           275.566       5.558
  11.8500           281.488       5.539
  11.9000           272.008       5.418
  11.9500           276.296       5.497
  12.0000           272.100       5.440
  12.0500           270.557       5.456
  12.1000           270.402       5.411
  12.1500           272.280       5.453
  12.2000           270.745       5.393
  12.2500           272.454       5.432
  12.3000           266.185       5.388
  12.3500           272.054       5.392
  12.4000           269.519       5.394
  12.4500           265.990       5.408
  12.5000           265.506       5.433
  12.5500           267.915       5.449
  12.6000           268.603       5.403
  12.6500           269.147       5.356
  12.7000           271.480       5.442
  12.7500           270.553       5.428
  12.8000           269.650       5.545
  12.8500           265.131       5.358
  12.9000           269.672       5.429
  12.9500           266.015       5.399
  13.0000           259.874       5.272
  13.0500           263.231       5.374
  13.1000           263.372       5.462
  13.1500           265.096       5.434
  13.2000           255.405       5.338
  13.2500           257.508       5.336
  13.3000           251.104       5.254
  13.3500           258.083       5.313
  13.4000           261.468       5.280
  13.4500           255.677       5.310
  13.5000           255.429       5.320
  13.5500           257.360       5.315
  13.6000           262.743       5.349
  13.6500           260.099       5.331
  13.7000           262.099       5.343
  13.7500           253.886       5.319
  13.8000           250.996       5.211
  13.8500           252.512       5.216
  13.9000           254.294       5.384
  13.9500           254.394       5.317
  14.0000           256.719       5.339
  14.0500           253.198       5.289
  14.1000           252.987       5.295
  14.1500           253.796       5.253
  14.2000           265.258       5.369
  14.2500           254.242       5.310
  14.3000           256.929       5.287
  14.3500           256.850       5.272
  14.4000           252.354       5.169
  14.4500           252.280       5.231
  14.5000           251.607       5.216
  14.5500           258.494       5.329
  14.6000           257.614       5.378
  14.6500           253.363       5.228
  14.7000           251.706       5.155
  14.7500           253.882       5.191
  14.8000           255.122       5.248
  14.8500           247.559       5.152
  14.9000           252.948       5.194
  14.9500           262.324       5.277
  15.0000           252.788       5.172
  15.0500           257.827       5.299
  15.1000           248.812       5.193
  15.1500           253.153       5.183
  15.2000           251.063       5.219
  15.2500           255.655       5.172
  15.3000           249.738       5.201
  15.3500           251.847       5.170
  15.4000           258.821       5.194
  15.4500           251.881       5.188
  15.5000           253.087       5.144
  15.5500           250.048       5.110
  15.6000           247.129       5.161
  15.6500           252.646       5.134
  15.7000           246.194       5.215
  15.7500           243.499       5.143
  15.8000           243.222       5.091
  15.8500           250.302       5.165
  15.9000           243.966       5.074
  15.9500           237.905       5.019
  16.0000           247.303       5.200
  16.0500           244.843       5.081
  16.1000           247.870       5.180
  16.1500           247.962       5.222
  16.2000           248.798       5.203
  16.2500           246.646       5.152
  16.3000           245.903       5.120
  16.3500           246.201       5.103
  16.4000           239.888       5.057
  16.4500           238.216       5.054
  16.5000           233.852       4.971
  16.5500           246.464       5.081
  16.6000           248.867       5.138
  16.6500           251.868       5.250
  16.7000           243.924       5.083
  16.7500           242.907       5.108
  16.8000           243.913       5.105
  16.8500           239.815       5.132
  16.9000           243.245       5.116
  16.9500           238.881       5.074
  17.0000           239.337       5.048
  17.0500           238.242       5.041
  17.1000           237.192       5.075
  17.1500           243.256       5.131
  17.2000           243.736       5.112
  17.2500           236.994       5.073
  17.3000           238.805       4.990
  17.3500           240.029       5.134
  17.4000           244.818       5.159
  17.4500           242.143       5.047
  17.5000           243.323       5.126
  17.5500           239.488       5.052
  17.6000           234.987       5.043
  17.6500           238.280       5.006
  17.7000           234.760       5.065
  17.7500           241.216       5.102
  17.8000           243.374       5.039
  17.8500           234.322       4.950
  17.9000           235.094       4.965
  17.9500           234.842       5.013
  18.0000           243.136       5.057
  18.0500           244.498       5.101
  18.1000           248.609       5.099
  18.1500           239.459       5.137
  18.2000           237.827       5.068
  18.2500           239.631       5.019
  18.3000           233.302       5.088
  18.3500           241.544       5.066
  18.4000           235.655       5.041
  18.4500           230.188       4.960
  18.5000           236.723       5.041
  18.5500           240.562       5.001
  18.6000           244.226       5.058
  18.6500           242.483       5.025
  18.7000           243.069       5.072
  18.7500           239.862       5.000
  18.8000           247.038       5.218
  18.8500           245.809       5.162
  18.9000           246.910       5.170
  18.9500           254.739       5.155
  19.0000           257.337       5.297
  19.0500           243.413       5.063
  19.1000           248.308       5.123
  19.1500           271.932       5.349
  19.2000           270.035       5.298
  19.2500           273.692       5.349
  19.3000           272.868       5.439
  19.3500           287.012       5.458
  19.4000           290.146       5.483
  19.4500           305.639       5.597
  19.5000           312.046       5.661
  19.5500           315.725       5.687
  19.6000           334.062       5.897
  19.6500           344.764       6.015
  19.7000           356.667       6.167
  19.7500           373.974       6.218
  19.8000           372.304       6.154
  19.8500           369.178       6.150
  19.9000           372.528       6.159
  19.9500           364.643       6.096
  20.0000           347.919       5.963
  20.0500           320.642       5.752
  20.1000           310.457       5.675
  20.1500           295.273       5.532
  20.2000           279.420       5.410
  20.2500           275.223       5.309
  20.3000           268.835       5.320
  20.3500           275.940       5.465
  20.4000           264.923       5.275
  20.4500           247.023       5.082
  20.5000           242.165       5.026
  20.5500           244.678       5.045
  20.6000           234.522       4.963
  20.6500           240.127       4.972
  20.7000           236.230       4.940
  20.7500           237.814       4.996
  20.8000           238.188       4.932
  20.8500           236.811       4.925
  20.9000           235.029       4.947
  20.9500           235.159       4.957
  21.0000           238.966       4.987
  21.0500           240.231       4.975
  21.1000           238.071       4.950
  21.1500           233.903       4.906
  21.2000           240.794       4.972
  21.2500           233.144       4.885
  21.3000           240.941       5.022
  21.3500           241.700       5.067
  21.4000           237.650       5.029
  21.4500           236.850       4.988
  21.5000           235.753       4.974
  21.5500           237.187       4.953
  21.6000           243.936       5.008
  21.6500           238.276       4.939
  21.7000           238.106       4.978
  21.7500           249.842       5.156
  21.8000           248.418       5.178
  21.8500           250.649       5.099
  21.9000           259.654       5.211
  21.9500           258.388       5.172
  22.0000           265.224       5.221
  22.0500           277.118       5.335
  22.1000           297.576       5.560
  22.1500           295.325       5.537
  22.2000           319.453       5.820
  22.2500           334.910       5.848
  22.3000           368.850       6.125
  22.3500           386.603       6.276
  22.4000           401.132       6.409
  22.4500           440.292       6.702
  22.5000           494.804       7.092
  22.5500           547.713       7.456
  22.6000           625.053       7.960
  22.6500           690.517       8.366
  22.7000           793.927       8.965
  22.7500           896.813       9.526
  22.8000           965.534       9.894
  22.8500          1007.983      10.107
  22.9000          1039.840      10.258
  22.9500          1045.517      10.284
  23.0000          1005.346      10.088
  23.0500           943.627       9.779
  23.1000           851.231       9.286
  23.1500           752.769       8.733
  23.2000           674.559       8.269
  23.2500           580.239       7.674
  23.3000           520.402       7.342
  23.3500           462.207       6.899
  23.4000           401.342       6.404
  23.4500           368.830       6.164
  23.5000           341.707       5.913
  23.5500           298.450       5.551
  23.6000           278.894       5.384
  23.6500           273.496       5.331
  23.7000           246.446       5.060
  23.7500           235.822       4.964
  23.8000           231.676       4.972
  23.8500           234.631       4.960
  23.9000           233.771       4.996
  23.9500           226.582       4.947
  24.0000           215.214       4.798
  24.0500           227.766       4.867
  24.1000           224.094       4.836
  24.1500           220.054       4.861
  24.2000           227.928       4.902
  24.2500           224.249       4.814
  24.3000           227.765       4.828
  24.3500           219.044       4.813
  24.4000           214.978       4.749
  24.4500           218.284       4.845
  24.5000           220.720       4.770
  24.5500           217.684       4.760
  24.6000           211.652       4.661
  24.6500           225.789       4.837
  24.7000           218.710       4.786
  24.7500           215.990       4.725
  24.8000           213.923       4.789
  24.8500           215.962       4.901
  24.9000           221.356       4.832
  24.9500           214.695       4.843
  25.0000           210.729       4.805
  25.0500           207.933       4.629
  25.1000           211.334       4.737
  25.1500           202.290       4.697
  25.2000           207.873       4.784
  25.2500           208.967       4.920
  25.3000           213.700       4.771
  25.3500           211.573       4.770
  25.4000           217.570       4.906
  25.4500           215.822       4.827
  25.5000           216.764       4.759
  25.5500           220.414       4.802
  25.6000           222.027       5.035
  25.6500           209.935       4.775
  25.7000           217.145       4.830
  25.7500           216.657       4.835
  25.8000           212.146       4.769
  25.8500           214.042       4.752
  25.9000           215.043       4.723
  25.9500           213.811       4.712
  26.0000           210.186       4.795
  26.0500           220.771       4.837
  26.1000           220.006       4.842
  26.1500           219.235       4.874
  26.2000           221.083       4.851
  26.2500           219.998       4.782
  26.3000           214.736       4.721
  26.3500           222.374       4.792
  26.4000           215.555       4.857
  26.4500           212.737       4.770
  26.5000           217.814       4.798
  26.5500           214.570       4.742
  26.6000           212.799       4.772
  26.6500           215.361       4.798
  26.7000           211.670       4.658
  26.7500           213.270       4.692
  26.8000           211.862       4.726
  26.8500           212.073       4.769
  26.9000           215.804       4.834
  26.9500           216.490       4.796
  27.0000           213.249       4.698
  27.0500           208.288       4.633
  27.1000           209.683       4.732
  27.1500           214.853       4.843
  27.2000           216.801       4.753
  27.2500           220.675       4.817
  27.3000           225.404       4.785
  27.3500           220.747       4.777
  27.4000           221.113       4.775
  27.4500           221.013       4.840
  27.5000           214.744       4.834
  27.5500           211.679       4.724
  27.6000           220.290       4.786
  27.6500           218.623       4.774
  27.7000           227.296       4.909
  27.7500           221.185       4.830
  27.8000           224.145       4.804
  27.8500           220.837       4.811
  27.9000           221.694       4.767
  27.9500           222.615       4.825
  28.0000           214.889       4.739
  28.0500           216.551       4.721
  28.1000           212.982       4.706
  28.1500           218.601       4.771
  28.2000           222.222       4.778
  28.2500           215.537       4.715
  28.3000           216.677       4.773
  28.3500           213.508       4.752
  28.4000           214.497       4.768
  28.4500           218.759       4.812
  28.5000           218.340       4.733
  28.5500           213.799       4.678
  28.6000           212.909       4.789
  28.6500           211.435       4.747
  28.7000           214.790       4.796
  28.7500           209.566       4.827
  28.8000           209.342       4.654
  28.8500           212.968       4.655
  28.9000           220.553       4.763
  28.9500           209.459       4.725
  29.0000           217.003       4.722
  29.0500           222.430       4.786
  29.1000           218.264       4.736
  29.1500           220.873       4.791
  29.2000           212.793       4.713
  29.2500           210.214       4.646
  29.3000           215.527       4.690
  29.3500           225.008       4.792
  29.4000           220.288       4.775
  29.4500           216.122       4.719
  29.5000           216.708       4.815
  29.5500           219.804       4.822
  29.6000           215.341       4.743
  29.6500           216.089       4.692
  29.7000           215.898       4.699
  29.7500           218.869       4.762
  29.8000           218.332       4.753
  29.8500           221.867       4.767
  29.9000           213.966       4.672
  29.9500           217.067       4.752
  30.0000           219.147       4.730
  30.0500           216.017       4.701
  30.1000           220.499       4.738
  30.1500           220.951       4.766
  30.2000           210.738       4.864
  30.2500           217.415       4.817
  30.3000           218.237       4.738
  30.3500           216.706       4.736
  30.4000           210.112       4.745
  30.4500           217.184       4.740
  30.5000           222.540       4.761
  30.5500           221.653       4.755
  30.6000           216.715       4.774
  30.6500           212.469       4.752
  30.7000           211.893       4.763
  30.7500           207.428       4.775
  30.8000           215.305       4.763
  30.8500           222.351       4.771
  30.9000           219.039       4.724
  30.9500           214.532       4.674
  31.0000           215.787       4.699
  31.0500           217.090       4.803
  31.1000           210.532       4.751
  31.1500           217.893       4.848
  31.2000           219.259       4.842
  31.2500           214.591       4.811
  31.3000           214.317       4.742
  31.3500           228.063       4.876
  31.4000           227.833       4.893
  31.4500           235.864       4.913
  31.5000           231.300       4.911
  31.5500           227.396       4.901
  31.6000           238.748       4.926
  31.6500           239.399       4.945
  31.7000           246.655       5.156
  31.7500           257.677       5.153
  31.8000           269.060       5.256
  31.8500           282.053       5.396
  31.9000           310.014       5.594
  31.9500           347.184       5.920
  32.0000           377.858       6.188
  32.0500           441.995       6.692
  32.1000           493.454       7.057
  32.1500           565.074       7.548
  32.2000           684.492       8.305
  32.2500           835.276       9.171
  32.3000          1018.383      10.124
  32.3500          1237.852      11.161
  32.4000          1476.804      12.185
  32.4500          1694.255      13.086
  32.5000          1907.604      13.853
  32.5500          2007.831      14.211
  32.6000          2053.590      14.373
  32.6500          1988.664      14.144
  32.7000          1833.935      13.581
  32.7500          1613.068      12.737
  32.8000          1369.128      11.734
  32.8500          1146.236      10.739
  32.9000           941.107       9.729
  32.9500           767.390       8.834
  33.0000           622.490       7.938
  33.0500           512.377       7.195
  33.1000           439.088       6.682
  33.1500           353.262       5.983
  33.2000           310.260       5.604
  33.2500           282.663       5.346
  33.3000           261.741       5.195
  33.3500           258.051       5.163
  33.4000           238.135       4.963
  33.4500           231.516       4.848
  33.5000           232.046       4.867
  33.5500           231.880       4.859
  33.6000           233.457       4.920
  33.6500           225.558       4.847
  33.7000           217.738       4.766
  33.7500           224.959       4.807
  33.8000           214.170       4.722
  33.8500           217.140       4.721
  33.9000           218.609       4.789
  33.9500           214.851       4.807
  34.0000           209.972       4.772
  34.0500           216.114       4.772
  34.1000           223.725       4.796
  34.1500           211.714       4.648
  34.2000           214.055       4.727
  34.2500           220.709       4.723
  34.3000           215.292       4.706
  34.3500           213.575       4.702
  34.4000           216.463       4.780
  34.4500           215.930       4.694
  34.5000           219.655       4.800
  34.5500           220.863       4.796
  34.6000           220.406       4.786
  34.6500           218.772       4.764
  34.7000           214.080       4.666
  34.7500           214.711       4.675
  34.8000           213.429       4.711
  34.8500           212.721       4.735
  34.9000           212.859       4.707
  34.9500           221.158       4.768
  35.0000           217.729       4.743
  35.0500           218.236       4.764
  35.1000           215.954       4.730
  35.1500           222.822       4.821
  35.2000           223.037       4.768
  35.2500           218.072       4.768
  35.3000           218.579       4.732
  35.3500           210.499       4.664
  35.4000           206.546       4.631
  35.4500           214.836       4.801
  35.5000           218.377       4.877
  35.5500           225.607       4.859
  35.6000           217.670       4.775
  35.6500           214.217       4.788
  35.7000           214.073       4.701
  35.7500           215.641       4.714
  35.8000           222.271       4.783
  35.8500           218.138       4.703
  35.9000           219.347       4.741
  35.9500           220.419       4.756
  36.0000           218.258       4.821
  36.0500           219.547       4.817
  36.1000           212.856       4.812
  36.1500           212.652       4.816
  36.2000           215.030       4.846
  36.2500           221.700       4.744
  36.3000           218.090       4.692
  36.3500           218.506       4.715
  36.4000           212.566       4.676
  36.4500           212.355       4.703
  36.5000           216.832       4.734
  36.5500           212.672       4.686
  36.6000           214.753       4.747
  36.6500           217.136       4.789
  36.7000           221.965       4.782
  36.7500           221.055       4.798
  36.8000           213.569       4.780
  36.8500           219.148       4.786
  36.9000           219.974       4.789
  36.9500           225.045       4.858
  37.0000           216.259       4.676
  37.0500           221.080       4.781
  37.1000           216.566       4.698
  37.1500           225.970       4.841
  37.2000           227.511       4.856
  37.2500           229.441       4.913
  37.3000           227.774       4.874
  37.3500           227.634       4.808
  37.4000           229.277       4.887
  37.4500           229.727       4.921
  37.5000           225.156       4.992
  37.5500           228.972       4.949
  37.6000           238.722       4.950
  37.6500           243.014       4.982
  37.7000           253.863       5.126
  37.7500           255.034       5.150
  37.8000           267.932       5.230
  37.8500           282.465       5.345
  37.9000           296.137       5.469
  37.9500           322.480       5.740
  38.0000           361.992       6.043
  38.0500           417.459       6.478
  38.1000           487.158       6.993
  38.1500           558.937       7.492
  38.2000           637.576       7.999
  38.2500           748.141       8.663
  38.3000           826.564       9.109
  38.3500           886.578       9.435
  38.4000           907.407       9.545
  38.4500           884.269       9.423
  38.5000           840.194       9.185
  38.5500           745.079       8.648
  38.6000           644.768       8.044
  38.6500           562.349       7.517
  38.7000           484.156       6.973
  38.7500           418.194       6.484
  38.8000           376.812       6.200
  38.8500           329.264       5.809
  38.9000           308.010       5.574
  38.9500           280.260       5.327
  39.0000           264.791       5.244
  39.0500           246.096       5.036
  39.1000           241.812       4.993
  39.1500           248.737       5.016
  39.2000           244.419       5.070
  39.2500           248.367       5.070
  39.3000           249.975       5.084
  39.3500           257.662       5.127
  39.4000           266.799       5.205
  39.4500           269.531       5.292
  39.5000           282.568       5.378
  39.5500           304.707       5.581
  39.6000           342.824       5.914
  39.6500           384.706       6.218
  39.7000           450.456       6.728
  39.7500           534.933       7.338
  39.8000           643.856       8.041
  39.8500           796.286       8.939
  39.9000          1011.751      10.076
  39.9500          1256.321      11.227
  40.0000          1514.214      12.327
  40.0500          1793.784      13.417
  40.1000          1981.703      14.104
  40.1500          2066.989      14.406
  40.2000          2074.457      14.433
  40.2500          1928.106      13.913
  40.3000          1765.584      13.313
  40.3500          1493.560      12.243
  40.4000          1239.474      11.150
  40.4500          1004.524      10.050
  40.5000           774.633       8.811
  40.5500           624.836       7.921
  40.6000           490.472       7.027
  40.6500           401.417       6.366
  40.7000           338.566       5.881
  40.7500           299.270       5.477
  40.8000           274.327       5.298
  40.8500           256.954       5.087
  40.9000           237.785       4.943
  40.9500           233.695       4.873
  41.0000           230.043       4.818
  41.0500           227.999       4.823
  41.1000           222.433       4.745
  41.1500           224.566       4.775
  41.2000           228.736       4.883
  41.2500           221.950       4.748
  41.3000           218.487       4.718
  41.3500           222.867       4.771
  41.4000           221.951       4.753
  41.4500           228.579       4.792
  41.5000           226.639       4.771
  41.5500           226.685       4.860
  41.6000           226.903       4.872
  41.6500           231.348       4.916
  41.7000           225.183       4.829
  41.7500           221.015       4.743
  41.8000           216.249       4.700
  41.8500           214.323       4.727
  41.9000           210.269       4.652
  41.9500           217.118       4.709
  42.0000           219.589       4.765
  42.0500           214.837       4.770
  42.1000           210.607       4.691
  42.1500           210.563       4.631
  42.2000           219.916       4.759
  42.2500           215.580       4.732
  42.3000           219.183       4.786
  42.3500           224.464       4.852
  42.4000           216.795       4.781
  42.4500           222.638       4.871
  42.5000           221.093       4.807
  42.5500           218.634       4.844
  42.6000           220.242       4.768
  42.6500           220.173       4.746
  42.7000           219.016       4.731
  42.7500           212.712       4.719
  42.8000           214.178       4.758
  42.8500           217.622       4.751
  42.9000           216.664       4.737
  42.9500           215.313       4.775
  43.0000           220.519       4.733
  43.0500           212.251       4.636
  43.1000           213.146       4.654
  43.1500           210.035       4.663
  43.2000           212.469       4.736
  43.2500           208.545       4.693
  43.3000           213.580       4.692
  43.3500           224.759       4.780
  43.4000           223.463       4.787
  43.4500           225.867       4.824
  43.5000           223.755       4.791
  43.5500           223.307       4.813
  43.6000           226.695       4.858
  43.6500           221.099       4.812
  43.7000           220.097       4.760
  43.7500           229.306       4.860
  43.8000           222.776       4.857
  43.8500           213.126       4.801
  43.9000           218.422       4.751
  43.9500           210.504       4.767
  44.0000           210.141       4.678
  44.0500           216.776       4.729
  44.1000           220.000       4.790
  44.1500           219.825       4.715
  44.2000           223.687       4.761
  44.2500           228.418       4.831
  44.3000           231.231       4.882
  44.3500           229.462       4.858
  44.4000           232.908       4.874
  44.4500           233.383       4.924
  44.5000           236.480       4.895
  44.5500           240.166       4.981
  44.6000           245.286       4.974
  44.6500           243.742       5.021
  44.7000           250.833       5.039
  44.7500           241.143       4.957
  44.8000           242.743       4.972
  44.8500           239.472       4.924
  44.9000           238.593       4.953
  44.9500           243.979       5.039
  45.0000           241.520       5.049
  45.0500           237.055       4.908
  45.1000           237.638       4.949
  45.1500           241.548       4.990
  45.2000           241.204       4.951
  45.2500           241.277       4.947
  45.3000           240.437       5.003
  45.3500           246.653       5.073
  45.4000           249.709       5.091
  45.4500           243.781       5.002
  45.5000           242.541       4.969
  45.5500           245.253       5.078
  45.6000           251.611       5.189
  45.6500           248.685       5.087
  45.7000           252.143       5.059
  45.7500           260.863       5.160
  45.8000           267.442       5.209
  45.8500           267.048       5.228
  45.9000           283.245       5.400
  45.9500           300.263       5.499
  46.0000           326.012       5.759
  46.0500           352.088       5.961
  46.1000           410.089       6.428
  46.1500           485.767       6.983
  46.2000           593.544       7.716
  46.2500           763.209       8.745
  46.3000          1017.405      10.094
  46.3500          1360.431      11.671
  46.4000          1827.626      13.528
  46.4500          2437.900      15.623
  46.5000          3112.543      17.659
  46.5500          3827.883      19.591
  46.6000          4498.106      21.239
  46.6500          4916.045      22.208
  46.7000          5038.294      22.485
  46.7500          4916.883      22.212
  46.8000          4487.256      21.213
  46.8500          3887.008      19.745
  46.9000          3231.761      17.996
  46.9500          2563.274      16.022
  47.0000          1958.697      14.007
  47.0500          1482.461      12.179
  47.1000          1089.049      10.441
  47.1500           803.408       8.969
  47.2000           618.365       7.869
  47.2500           474.551       6.902
  47.3000           382.668       6.211
  47.3500           330.226       5.757
  47.4000           303.949       5.551
  47.4500           272.524       5.262
  47.5000           254.996       5.095
  47.5500           244.015       4.977
  47.6000           234.562       4.926
  47.6500           236.705       4.886
  47.7000           231.677       4.875
  47.7500           219.464       4.758
  47.8000           220.598       4.760
  47.8500           218.142       4.721
  47.9000           221.863       4.756
  47.9500           223.527       4.766
  48.0000           227.347       4.846
  48.0500           215.326       4.822
  48.1000           206.225       4.690
  48.1500           212.245       4.695
  48.2000           208.260       4.735
  48.2500           219.023       4.785
  48.3000           208.813       4.692
  48.3500           208.977       4.729
  48.4000           216.429       4.689
  48.4500           209.077       4.630
  48.5000           216.086       4.743
  48.5500           211.205       4.670
  48.6000           204.954       4.655
  48.6500           206.685       4.658
  48.7000           213.628       4.744
  48.7500           208.900       4.661
  48.8000           201.584       4.569
  48.8500           212.570       4.760
  48.9000           211.099       4.679
  48.9500           211.967       4.701
  49.0000           207.141       4.624
  49.0500           200.162       4.632
  49.1000           206.499       4.649
  49.1500           200.140       4.533
  49.2000           201.205       4.563
  49.2500           197.295       4.557
  49.3000           194.347       4.613
  49.3500           200.677       4.632
  49.4000           197.311       4.576
  49.4500           195.988       4.537
  49.5000           194.907       4.662
  49.5500           196.847       4.599
  49.6000           201.167       4.623
  49.6500           198.879       4.536
  49.7000           200.522       4.545
  49.7500           204.176       4.591
  49.8000           204.269       4.609
  49.8500           207.711       4.673
  49.9000           210.203       4.735
  49.9500           199.239       4.647
  50.0000           207.485       4.707
  50.0500           202.189       4.535
  50.1000           203.147       4.669
  50.1500           205.736       4.666
  50.2000           202.727       4.573
  50.2500           200.914       4.568
  50.3000           201.952       4.685
  50.3500           203.816       4.621
  50.4000           204.120       4.550
  50.4500           212.077       4.668
  50.5000           210.365       4.613
  50.5500           214.232       4.668
  50.6000           217.732       4.736
  50.6500           227.270       4.899
  50.7000           236.017       5.187
  50.7500           262.561       5.182
  50.8000           299.303       5.562
  50.8500           346.701       5.895
  50.9000           386.742       6.224
  50.9500           455.829       6.779
  51.0000           518.409       7.238
  51.0500           589.998       7.703
  51.1000           662.958       8.152
  51.1500           676.763       8.236
  51.2000           660.913       8.139
  51.2500           619.274       7.878
  51.3000           559.224       7.489
  51.3500           526.062       7.262
  51.4000           449.553       6.728
  51.4500           384.405       6.207
  51.5000           334.854       5.793
  51.5500           289.663       5.439
  51.6000           257.874       5.174
  51.6500           242.126       5.048
  51.7000           242.449       5.005
  51.7500           236.060       4.902
  51.8000           227.014       4.844
  51.8500           228.667       4.814
  51.9000           217.061       4.782
  51.9500           222.770       4.798
  52.0000           235.830       4.901
  52.0500           253.526       5.093
  52.1000           256.593       5.106
  52.1500           291.493       5.481
  52.2000           320.335       5.718
  52.2500           379.271       6.171
  52.3000           458.888       6.781
  52.3500           570.117       7.553
  52.4000           703.509       8.395
  52.4500           844.093       9.220
  52.5000           983.912       9.969
  52.5500          1098.465      10.494
  52.6000          1157.259      10.771
  52.6500          1134.681      10.666
  52.7000          1048.738      10.252
  52.7500           931.093       9.658
  52.8000           774.595       8.831
  52.8500           650.266       8.075
  52.9000           528.529       7.275
  52.9500           432.833       6.597
  53.0000           357.943       6.052
  53.0500           303.356       5.528
  53.1000           270.711       5.237
  53.1500           245.868       4.998
  53.2000           229.076       4.933
  53.2500           223.163       4.786
  53.3000           218.376       4.732
  53.3500           217.538       4.670
  53.4000           205.643       4.537
  53.4500           204.633       4.586
  53.5000           208.722       4.654
  53.5500           201.511       4.565
  53.6000           194.265       4.492
  53.6500           197.784       4.516
  53.7000           195.553       4.447
  53.7500           198.611       4.503
  53.8000           201.800       4.544
  53.8500           193.533       4.424
  53.9000           197.415       4.540
  53.9500           206.052       4.580
  54.0000           203.877       4.579
  54.0500           196.259       4.503
  54.1000           205.634       4.596
  54.1500           212.578       4.711
  54.2000           212.445       4.701
  54.2500           216.796       4.681
  54.3000           223.099       4.815
  54.3500           235.062       4.891
  54.4000           246.894       5.011
  54.4500           250.637       5.033
  54.5000           253.240       5.063
  54.5500           246.536       5.036
  54.6000           240.213       4.942
  54.6500           228.208       4.815
  54.7000           221.440       4.757
  54.7500           216.326       4.679
  54.8000           209.278       4.596
  54.8500           203.021       4.567
  54.9000           206.850       4.628
  54.9500           200.504       4.565
  55.0000           193.279       4.438
  55.0500           196.296       4.520
  55.1000           197.689       4.475
  55.1500           188.962       4.395
  55.2000           192.550       4.444
  55.2500           198.670       4.519
  55.3000           199.309       4.532
  55.3500           198.103       4.489
  55.4000           198.100       4.523
  55.4500           194.933       4.521
  55.5000           197.662       4.495
  55.5500           199.107       4.504
  55.6000           199.114       4.515
  55.6500           201.171       4.521
  55.7000           202.752       4.545
  55.7500           194.707       4.469
  55.8000           195.102       4.454
  55.8500           195.175       4.450
  55.9000           193.064       4.484
  55.9500           193.332       4.441
  56.0000           204.301       4.575
  56.0500           204.773       4.585
  56.1000           196.554       4.559
  56.1500           206.800       4.653
  56.2000           197.747       4.496
  56.2500           200.405       4.479
  56.3000           197.537       4.463
  56.3500           200.621       4.521
  56.4000           202.310       4.499
  56.4500           205.730       4.579
  56.5000           209.923       4.653
  56.5500           197.432       4.510
  56.6000           192.887       4.414
  56.6500           200.432       4.507
  56.7000           203.307       4.561
  56.7500           204.163       4.594
  56.8000           209.589       4.638
  56.8500           207.655       4.617
  56.9000           203.019       4.583
  56.9500           208.244       4.662
  57.0000           211.476       4.669
  57.0500           211.444       4.625
  57.1000           212.712       4.673
  57.1500           214.158       4.673
  57.2000           222.145       4.841
  57.2500           221.590       4.786
  57.3000           222.241       4.772
  57.3500           223.191       4.753
  57.4000           234.228       4.902
  57.4500           250.610       5.078
  57.5000           256.230       5.080
  57.5500           277.667       5.275
  57.6000           323.669       5.690
  57.6500           397.803       6.309
  57.7000           492.879       7.020
  57.7500           639.366       7.997
  57.8000           855.931       9.248
  57.8500          1139.388      10.677
  57.9000          1425.154      11.942
  57.9500          1770.686      13.314
  58.0000          2016.089      14.213
  58.0500          2173.075      14.759
  58.1000          2143.054      14.657
  58.1500          2012.451      14.200
  58.2000          1773.117      13.327
  58.2500          1488.999      12.211
  58.3000          1189.080      10.907
  58.3500           918.439       9.582
  58.4000           713.304       8.448
  58.4500           538.835       7.341
  58.5000           426.964       6.541
  58.5500           349.935       5.922
  58.6000           302.346       5.510
  58.6500           263.034       5.194
  58.7000           248.561       5.075
  58.7500           239.802       4.915
  58.8000           227.759       4.861
  58.8500           225.427       4.792
  58.9000           219.110       4.713
  58.9500           210.708       4.659
  59.0000           217.786       4.766
  59.0500           208.647       4.707
  59.1000           206.706       4.618
  59.1500           204.284       4.589
  59.2000           207.743       4.623
  59.2500           202.491       4.571
  59.3000           208.626       4.676
  59.3500           203.538       4.637
  59.4000           202.310       4.563
  59.4500           208.197       4.649
  59.5000           210.868       4.641
  59.5500           209.891       4.634
  59.6000           197.462       4.512
  59.6500           207.207       4.588
  59.7000           204.150       4.528
  59.7500           211.531       4.612
  59.8000           207.178       4.583
  59.8500           208.468       4.585
  59.9000           208.199       4.584
  59.9500           200.174       4.597
  60.0000           207.020       4.608
  60.0500           198.827       4.521
  60.1000           200.663       4.542
  60.1500           209.552       4.672
  60.2000           202.237       4.517
  60.2500           201.757       4.553
  60.3000           204.714       4.563
  60.3500           197.694       4.480
  60.4000           201.732       4.531
  60.4500           205.391       4.561
  60.5000           197.027       4.537
  60.5500           202.844       4.575
  60.6000           209.874       4.595
  60.6500           199.914       4.492
  60.7000           204.836       4.589
  60.7500           206.571       4.620
  60.8000           207.588       4.652
  60.8500           203.636       4.592
  60.9000           205.090       4.610
  60.9500           202.372       4.540
  61.0000           205.992       4.640
  61.0500           208.494       4.594
  61.1000           198.819       4.487
  61.1500           200.407       4.544
  61.2000           202.463       4.588
  61.2500           193.787       4.500
  61.3000           197.544       4.472
  61.3500           202.324       4.532
  61.4000           212.170       4.647
  61.4500           217.334       4.690
  61.5000           215.595       4.664
  61.5500           228.000       4.786
  61.6000           238.478       4.899
  61.6500           253.786       5.047
  61.7000           272.400       5.252
  61.7500           303.981       5.538
  61.8000           339.361       5.829
  61.8500           371.955       6.132
  61.9000           412.739       6.453
  61.9500           437.547       6.620
  62.0000           427.181       6.583
  62.0500           412.029       6.429
  62.1000           400.426       6.340
  62.1500           368.225       6.083
  62.2000           322.867       5.726
  62.2500           305.135       5.585
  62.3000           269.610       5.275
  62.3500           246.130       5.033
  62.4000           237.073       4.900
  62.4500           223.168       4.740
  62.5000           219.766       4.699
  62.5500           208.858       4.674
  62.6000           217.065       4.714
  62.6500           214.564       4.712
  62.7000           208.373       4.612
  62.7500           205.541       4.653
  62.8000           208.104       4.626
  62.8500           211.604       4.706
  62.9000           206.164       4.648
  62.9500           208.057       4.753
  63.0000           204.208       4.662
  63.0500           206.322       4.617
  63.1000           208.375       4.657
  63.1500           206.033       4.654
  63.2000           218.883       4.732
  63.2500           212.745       4.738
  63.3000           210.404       4.645
  63.3500           207.546       4.626
  63.4000           217.771       4.819
  63.4500           206.043       4.682
  63.5000           215.384       4.716
  63.5500           207.808       4.711
  63.6000           198.673       4.532
  63.6500           203.878       4.663
  63.7000           208.245       4.687
  63.7500           201.559       4.635
  63.8000           207.936       4.645
  63.8500           209.953       4.641
  63.9000           206.591       4.637
  63.9500           207.585       4.583
  64.0000           204.863       4.603
  64.0500           207.216       4.636
  64.1000           190.109       4.595
  64.1500           201.448       4.617
  64.2000           200.166       4.616
  64.2500           200.996       4.520
  64.3000           214.923       4.666
  64.3500           210.662       4.630
  64.4000           213.598       4.719
  64.4500           207.680       4.670
  64.5000           212.709       4.659
  64.5500           214.551       4.689
  64.6000           207.298       4.634
  64.6500           212.891       4.717
  64.7000           225.715       4.793
  64.7500           226.624       4.770
  64.8000           230.262       4.815
  64.8500           227.524       4.809
  64.9000           230.925       4.846
  64.9500           234.865       4.863
  65.0000           231.241       4.895
  65.0500           233.882       4.949
  65.1000           222.533       4.834
  65.1500           221.493       4.777
  65.2000           220.558       4.828
  65.2500           218.467       4.713
  65.3000           217.458       4.775
  65.3500           209.598       4.792
  65.4000           203.545       4.786
  65.4500           202.064       4.713
  65.5000           203.141       4.693
  65.5500           203.636       4.653
  65.6000           208.317       4.680
  65.6500           212.848       4.719
  65.7000           211.390       4.676
  65.7500           212.060       4.639
  65.8000           205.390       4.634
  65.8500           211.895       4.682
  65.9000           209.232       4.615
  65.9500           214.102       4.648
  66.0000           216.356       4.704
  66.0500           209.592       4.651
  66.1000           212.935       4.698
  66.1500           213.084       4.666
  66.2000           211.769       4.610
  66.2500           221.143       4.758
  66.3000           214.924       4.825
  66.3500           219.653       4.714
  66.4000           227.083       4.799
  66.4500           218.735       4.741
  66.5000           225.994       4.905
  66.5500           225.145       4.998
  66.6000           225.102       4.925
  66.6500           224.389       4.904
  66.7000           230.280       4.994
  66.7500           228.980       4.930
  66.8000           225.930       4.777
  66.8500           230.920       4.863
  66.9000           234.569       4.974
  66.9500           230.898       4.887
  67.0000           239.733       4.895
  67.0500           235.139       4.873
  67.1000           237.023       4.973
  67.1500           236.962       5.005
  67.2000           250.537       5.082
  67.2500           258.622       5.138
  67.3000           261.847       5.142
  67.3500           271.918       5.247
  67.4000           284.386       5.418
  67.4500           291.688       5.452
  67.5000           303.322       5.595
  67.5500           321.341       5.670
  67.6000           342.376       5.959
  67.6500           405.255       6.447
  67.7000           496.180       7.049
  67.7500           645.919       8.034
  67.8000           877.413       9.361
  67.8500          1244.171      11.144
  67.9000          1748.217      13.215
  67.9500          2345.746      15.313
  68.0000          3129.901      17.688
  68.0500          3945.436      19.873
  68.1000          4633.272      21.542
  68.1500          5082.311      22.565
  68.2000          5164.707      22.748
  68.2500          4808.686      21.947
  68.3000          4123.719      20.316
  68.3500          3324.322      18.234
  68.4000          2563.736      16.010
  68.4500          1866.299      13.649
  68.5000          1333.885      11.540
  68.5500           983.858       9.961
  68.6000           717.724       8.470
  68.6500           546.473       7.393
  68.7000           445.461       6.749
  68.7500           386.303       6.235
  68.8000           346.338       5.929
  68.8500           319.144       5.672
  68.9000           306.404       5.598
  68.9500           285.304       5.398
  69.0000           258.206       5.201
  69.0500           251.278       5.106
  69.1000           245.304       5.010
  69.1500           239.301       4.929
  69.2000           234.232       4.937
  69.2500           225.564       4.782
  69.3000           225.719       4.808
  69.3500           232.007       4.927
  69.4000           231.553       4.873
  69.4500           223.395       4.825
  69.5000           227.248       4.809
  69.5500           226.827       4.803
  69.6000           223.740       4.794
  69.6500           224.087       4.812
  69.7000           221.974       4.820
  69.7500           225.714       4.805
  69.8000           220.515       4.748
  69.8500           219.634       4.920
  69.9000           215.341       4.770
  69.9500           215.289       4.764
  70.0000           219.689       4.778
  70.0500           211.056       4.627
  70.1000           214.423       4.701
  70.1500           221.765       4.726
  70.2000           219.203       4.689
  70.2500           214.381       4.636
  70.3000           213.880       4.625
  70.3500           216.109       4.651
  70.4000           210.853       4.600
  70.4500           220.753       4.773
  70.5000           220.718       4.768
  70.5500           216.530       4.861
  70.6000           223.301       4.747
  70.6500           215.401       4.720
  70.7000           217.485       4.705
  70.7500           223.230       4.756
  70.8000           214.544       4.706
  70.8500           220.385       4.728
  70.9000           225.537       4.791
  70.9500           227.166       4.814
  71.0000           226.158       4.811
  71.0500           225.441       4.806
  71.1000           221.509       4.730
  71.1500           234.156       4.885
  71.2000           242.855       5.015
  71.2500           247.958       5.040
  71.3000           257.017       5.104
  71.3500           281.681       5.341
  71.4000           318.267       5.640
  71.4500           376.827       6.140
  71.5000           457.440       6.763
  71.5500           535.512       7.320
  71.6000           645.267       8.035
  71.6500           746.519       8.644
  71.7000           838.899       9.165
  71.7500           872.234       9.347
  71.8000           888.520       9.434
  71.8500           834.818       9.143
  71.9000           750.988       8.669
  71.9500           635.668       7.974
  72.0000           533.584       7.306
  72.0500           447.951       6.694
  72.1000           379.690       6.166
  72.1500           324.380       5.730
  72.2000           294.791       5.452
  72.2500           274.751       5.249
  72.3000           259.985       5.151
  72.3500           250.515       5.045
  72.4000           262.859       5.227
  72.4500           266.946       5.252
  72.5000           285.867       5.370
  72.5500           315.570       5.630
  72.6000           356.726       5.983
  72.6500           424.144       6.510
  72.7000           516.363       7.188
  72.7500           605.089       7.782
  72.8000           719.540       8.484
  72.8500           793.236       8.913
  72.9000           849.923       9.227
  72.9500           856.573       9.261
  73.0000           827.885       9.106
  73.0500           726.015       8.524
  73.1000           629.182       7.936
  73.1500           527.524       7.266
  73.2000           440.181       6.635
  73.2500           371.434       6.119
  73.3000           310.833       5.610
  73.3500           278.159       5.326
  73.4000           255.395       5.083
  73.4500           244.407       5.097
  73.5000           235.318       5.047
  73.5500           232.780       4.844
  73.6000           230.402       4.830
  73.6500           226.949       4.812
  73.7000           216.700       4.695
  73.7500           213.969       4.655
  73.8000           213.284       4.672
  73.8500           216.393       4.714
  73.9000           212.176       4.653
  73.9500           218.931       4.698
  74.0000           218.573       4.702
  74.0500           217.261       4.699
  74.1000           215.255       4.657
  74.1500           209.929       4.624
  74.2000           220.026       4.733
  74.2500           219.326       4.770
  74.3000           209.493       4.634
  74.3500           210.628       4.625
  74.4000           210.969       4.632
  74.4500           212.195       4.664
  74.5000           216.363       4.693
  74.5500           216.809       4.720
  74.6000           212.113       4.627
  74.6500           212.343       4.669
  74.7000           206.251       4.573
  74.7500           213.163       4.632
  74.8000           210.688       4.674
  74.8500           214.041       4.698
  74.9000           212.527       4.689
  74.9500           217.156       4.750
  75.0000           212.580       4.713
  75.0500           212.429       4.639
  75.1000           212.773       4.810
  75.1500           207.721       4.614
  75.2000           210.783       4.640
  75.2500           218.658       4.727
  75.3000           214.121       4.760
  75.3500           216.369       4.679
  75.4000           216.071       4.673
  75.4500           211.716       4.679
  75.5000           216.318       4.795
  75.5500           211.618       4.826
  75.6000           214.146       4.709
  75.6500           212.159       4.631
  75.7000           217.333       4.714
  75.7500           215.201       4.704
  75.8000           209.882       4.618
  75.8500           212.880       4.654
  75.9000           213.366       4.669
  75.9500           208.474       4.727
  76.0000           217.278       4.713
  76.0500           220.568       4.712
  76.1000           219.783       4.748
  76.1500           225.324       4.831
  76.2000           216.545       4.791
  76.2500           214.320       4.685
  76.3000           205.616       4.649
  76.3500           209.451       4.723
  76.4000           214.264       4.706
  76.4500           216.230       4.715
  76.5000           217.249       4.756
  76.5500           220.197       4.753
  76.6000           212.686       4.690
  76.6500           216.480       4.694
  76.7000           221.358       4.749
  76.7500           219.347       4.736
  76.8000           224.713       4.775
  76.8500           228.724       4.820
  76.9000           236.574       4.892
  76.9500           239.216       5.024
  77.0000           242.024       4.979
  77.0500           247.898       4.986
  77.1000           263.453       5.140
  77.1500           290.741       5.412
  77.2000           320.094       5.723
  77.2500           382.347       6.214
  77.3000           463.912       6.809
  77.3500           590.886       7.686
  77.4000           728.421       8.536
  77.4500           860.266       9.280
  77.5000           976.413       9.887
  77.5500          1042.238      10.217
  77.6000          1042.123      10.216
  77.6500           996.241       9.988
  77.7000           918.617       9.590
  77.7500           824.460       9.085
  77.8000           685.234       8.279
  77.8500           564.016       7.511
  77.9000           455.679       6.749
  77.9500           387.411       6.228
  78.0000           332.068       5.815
  78.0500           290.021       5.501
  78.1000           264.791       5.234
  78.1500           259.820       5.105
  78.2000           254.362       5.068
  78.2500           240.164       4.973
  78.3000           235.707       4.926
  78.3500           230.037       4.819
  78.4000           234.551       4.881
  78.4500           225.193       4.814
  78.5000           224.117       4.829
  78.5500           220.117       4.750
  78.6000           220.145       4.748
  78.6500           219.143       4.710
  78.7000           222.321       4.724
  78.7500           214.739       4.695
  78.8000           214.604       4.651
  78.8500           219.533       4.695
  78.9000           220.812       4.709
  78.9500           218.867       4.729
  79.0000           219.487       4.722
  79.0500           218.180       4.733
  79.1000           216.160       4.847
  79.1500           227.145       4.820
  79.2000           219.795       4.688
  79.2500           219.385       4.690
  79.3000           216.828       4.667
  79.3500           223.571       4.738
  79.4000           215.621       4.689
  79.4500           220.832       4.774
  79.5000           223.327       4.738
  79.5500           220.928       4.775
  79.6000           218.714       4.761
  79.6500           226.092       4.773
  79.7000           230.106       4.821
  79.7500           233.117       4.846
  79.8000           232.539       4.838
  79.8500           232.671       4.898
  79.9000           228.748       4.814
  79.9500           229.457       4.839
  80.0000           228.122       4.815
  80.0500           227.173       4.799
  80.1000           231.946       4.829
  80.1500           235.273       4.899
  80.2000           223.749       4.853
  80.2500           230.744       4.859
  80.3000           228.243       4.809
  80.3500           230.710       4.816
  80.4000           231.366       4.836
  80.4500           232.966       4.906
  80.5000           237.607       4.930
  80.5500           243.966       4.981
  80.6000           248.896       5.030
  80.6500           278.009       5.274
  80.7000           304.171       5.516
  80.7500           355.880       5.967
  80.8000           412.965       6.426
  80.8500           487.155       6.983
  80.9000           548.762       7.413
  80.9500           606.651       7.793
  81.0000           619.651       7.877
  81.0500           609.183       7.810
  81.1000           558.930       7.481
  81.1500           488.861       6.994
  81.2000           419.390       6.479
  81.2500           358.530       5.987
  81.3000           311.531       5.583
  81.3500           284.577       5.339
  81.4000           264.563       5.149
  81.4500           256.813       5.127
  81.5000           256.062       5.131
  81.5500           259.074       5.116
  81.6000           262.579       5.210
  81.6500           269.720       5.236
  81.7000           291.751       5.451
  81.7500           340.543       5.835
  81.8000           403.926       6.357
  81.8500           477.652       6.926
  81.9000           602.868       7.817
  81.9500           743.846       8.627
  82.0000           880.809       9.391
  82.0500          1003.229      10.021
  82.1000          1080.237      10.400
  82.1500          1102.789      10.511
  82.2000          1065.986      10.331
  82.2500           953.313       9.770
  82.3000           820.987       9.064
  82.3500           682.021       8.262
  82.4000           563.949       7.513
  82.4500           462.643       6.830
  82.5000           386.289       6.251
  82.5500           327.073       5.720
  82.6000           294.045       5.428
  82.6500           266.292       5.208
  82.7000           257.753       5.116
  82.7500           247.523       4.983
  82.8000           240.844       4.929
  82.8500           237.049       4.908
  82.9000           236.501       4.897
  82.9500           228.016       4.788
  83.0000           232.168       4.831
  83.0500           230.035       4.798
  83.1000           230.296       4.801
  83.1500           225.280       4.797
  83.2000           226.966       4.773
  83.2500           221.733       4.770
  83.3000           225.904       4.807
  83.3500           226.599       4.810
  83.4000           218.734       4.775
  83.4500           222.319       4.809
  83.5000           225.461       4.794
  83.5500           220.624       4.739
  83.6000           225.611       4.774
  83.6500           231.372       4.809
  83.7000           224.973       4.744
  83.7500           218.653       4.698
  83.8000           225.756       4.786
  83.8500           232.345       4.835
  83.9000           232.585       4.838
  83.9500           223.003       4.729
  84.0000           222.845       4.811
  84.0500           232.719       4.874
  84.1000           226.195       4.876
  84.1500           216.706       4.701
  84.2000           221.421       4.777
  84.2500           221.032       4.732
  84.3000           223.898       4.783
  84.3500           228.751       4.844
  84.4000           232.518       4.860
  84.4500           231.399       4.823
  84.5000           221.222       4.780
  84.5500           229.115       4.819
  84.6000           221.041       4.707
  84.6500           224.522       4.765
  84.7000           225.061       4.764
  84.7500           228.657       4.866
  84.8000           225.719       4.841
  84.8500           216.047       4.794
  84.9000           218.389       4.778
  84.9500           222.733       4.741
  85.0000           229.577       4.814
  85.0500           232.940       4.850
  85.1000           235.652       4.865
  85.1500           233.689       4.881
  85.2000           233.402       4.903
  85.2500           229.510       4.867
  85.3000           230.965       4.842
  85.3500           236.254       4.868
  85.4000           232.900       4.830
  85.4500           234.859       4.877
  85.5000           230.441       4.824
  85.5500           233.576       4.858
  85.6000           240.387       4.924
  85.6500           236.019       4.884
  85.7000           224.993       4.809
  85.7500           233.050       4.926
  85.8000           243.415       5.027
  85.8500           255.921       5.109
  85.9000           254.391       5.066
  85.9500           252.707       5.043
  86.0000           259.186       5.100
  86.0500           266.047       5.167
  86.1000           276.410       5.296
  86.1500           297.084       5.537
  86.2000           330.841       5.762
  86.2500           410.254       6.440
  86.3000           525.273       7.257
  86.3500           714.518       8.450
  86.4000           966.964       9.835
  86.4500          1276.075      11.299
  86.5000          1627.040      12.762
  86.5500          1920.618      13.868
  86.6000          2134.783      14.622
  86.6500          2247.607      15.004
  86.7000          2203.322      14.856
  86.7500          1986.002      14.104
  86.8000          1675.804      12.953
  86.8500          1344.783      11.603
  86.9000          1031.541      10.160
  86.9500           774.682       8.801
  87.0000           597.791       7.732
  87.0500           470.910       6.875
  87.1000           385.614       6.219
  87.1500           331.918       5.771
  87.2000           299.068       5.485
  87.2500           284.442       5.352
  87.3000           271.418       5.211
  87.3500           265.973       5.168
  87.4000           259.623       5.140
  87.4500           257.836       5.114
  87.5000           238.461       4.935
  87.5500           238.819       4.904
  87.6000           234.397       4.873
  87.6500           235.621       4.918
  87.7000           230.544       4.861
  87.7500           227.307       4.816
  87.8000           232.659       4.844
  87.8500           223.982       4.747
  87.9000           230.561       4.864
  87.9500           233.973       4.927
  88.0000           243.282       4.970
  88.0500           224.376       4.809
  88.1000           235.540       4.859
  88.1500           225.554       4.873
  88.2000           225.821       4.825
  88.2500           231.034       4.830
  88.3000           230.334       4.937
  88.3500           214.124       4.783
  88.4000           226.999       4.877
  88.4500           221.669       4.746
  88.5000           221.377       4.717
  88.5500           234.137       4.893
  88.6000           222.174       4.724
  88.6500           225.136       4.799
  88.7000           225.701       4.759
  88.7500           226.878       4.779
  88.8000           226.888       4.770
  88.8500           228.711       4.824
  88.9000           221.639       4.720
  88.9500           242.767       4.946
  89.0000           234.424       4.882
  89.0500           222.247       4.752
  89.1000           226.147       4.773
  89.1500           233.183       4.868
  89.2000           224.514       4.823
  89.2500           229.756       4.849
  89.3000           231.563       4.929
  89.3500           240.018       4.952
  89.4000           237.622       4.881
  89.4500           235.879       4.933
  89.5000           239.315       5.146
  89.5500           262.540       5.186
  89.6000           286.097       5.359
  89.6500           297.193       5.494
  89.7000           355.001       5.964
  89.7500           398.437       6.388
  89.8000           441.051       6.697
  89.8500           490.464       7.011
  89.9000           527.760       7.283
  89.9500           551.486       7.434
  90.0000           564.166       7.528
  90.0500           555.554       7.461
  90.1000           544.966       7.389
  90.1500           529.364       7.284
  90.2000           487.800       6.993
  90.2500           437.264       6.620
  90.3000           391.768       6.282
  90.3500           356.022       5.976
  90.4000           305.812       5.569
  90.4500           282.002       5.369
  90.5000           260.234       5.172
  90.5500           249.827       5.051
  90.6000           237.093       4.915
  90.6500           250.704       5.014
  90.7000           250.767       5.037
  90.7500           248.224       5.013
  90.8000           262.287       5.192
  90.8500           284.061       5.412
  90.9000           294.656       5.486
  90.9500           314.732       5.615
  91.0000           348.283       5.916
  91.0500           369.929       6.109
  91.1000           405.014       6.373
  91.1500           416.392       6.458
  91.2000           405.929       6.376
  91.2500           389.816       6.249
  91.3000           353.581       5.954
  91.3500           323.463       5.714
  91.4000           288.832       5.388
  91.4500           268.568       5.255
  91.5000           252.671       5.074
  91.5500           241.903       4.937
  91.6000           238.843       4.925
  91.6500           225.678       4.777
  91.7000           228.334       4.792
  91.7500           224.528       4.771
  91.8000           225.645       4.763
  91.8500           229.112       4.816
  91.9000           222.910       4.801
  91.9500           230.078       4.804
  92.0000           233.598       4.857
  92.0500           227.529       4.840
  92.1000           224.968       4.804
  92.1500           228.346       4.809
  92.2000           220.139       4.751
  92.2500           217.113       4.730
  92.3000           226.414       4.777
  92.3500           228.828       4.843
  92.4000           226.000       4.760
  92.4500           220.917       4.738
  92.5000           223.289       4.773
  92.5500           224.619       4.772
  92.6000           231.805       4.817
  92.6500           235.076       4.892
  92.7000           229.847       4.824
  92.7500           228.550       4.800
  92.8000           230.303       4.870
  92.8500           224.168       4.753
  92.9000           229.419       4.796
  92.9500           233.594       4.876
  93.0000           231.573       4.864
  93.0500           225.423       4.753
  93.1000           223.443       4.739
  93.1500           217.542       4.682
  93.2000           214.170       4.700
  93.2500           227.987       4.877
  93.3000           223.113       4.743
  93.3500           228.532       4.805
  93.4000           218.583       4.725
  93.4500           230.937       4.830
  93.5000           227.693       4.805
  93.5500           224.948       4.824
  93.6000           229.757       4.867
  93.6500           231.990       4.867
  93.7000           236.209       4.955
  93.7500           241.308       4.928
  93.8000           227.984       4.886
  93.8500           236.766       4.883
  93.9000           243.274       4.967
  93.9500           239.936       5.030
  94.0000           240.713       4.947
  94.0500           244.122       4.948
  94.1000           242.113       4.934
  94.1500           248.344       5.008
  94.2000           248.360       4.993
  94.2500           250.252       5.028
  94.3000           248.258       5.024
  94.3500           245.980       4.986
  94.4000           246.741       4.982
  94.4500           243.786       4.954
  94.5000           235.992       4.919
  94.5500           236.125       4.901
  94.6000           239.960       4.899
  94.6500           235.496       4.855
  94.7000           246.890       5.002
  94.7500           249.251       5.003
  94.8000           250.128       5.012
  94.8500           253.388       5.084
  94.9000           258.750       5.178
  94.9500           264.386       5.155
  95.0000           276.491       5.288
  95.0500           301.520       5.531
  95.1000           341.626       5.843
  95.1500           406.635       6.376
  95.2000           498.563       7.061
  95.2500           636.787       7.977
  95.3000           830.015       9.112
  95.3500          1029.774      10.153
  95.4000          1249.599      11.183
  95.4500          1418.129      11.917
  95.5000          1590.847      12.621
  95.5500          1757.776      13.270
  95.6000          1887.720      13.751
  95.6500          1929.654      13.900
  95.7000          1805.756      13.448
  95.7500          1562.808      12.507
  95.8000          1290.594      11.363
  95.8500          1004.593      10.026
  95.9000           794.510       8.916
  95.9500           611.175       7.816
  96.0000           484.040       6.960
  96.0500           393.850       6.280
  96.1000           337.605       5.838
  96.1500           313.611       5.619
  96.2000           288.569       5.373
  96.2500           272.057       5.219
  96.3000           274.412       5.281
  96.3500           259.417       5.132
  96.4000           249.350       5.022
  96.4500           242.860       4.972
  96.5000           249.988       5.063
  96.5500           253.194       5.154
  96.6000           242.754       4.988
  96.6500           241.024       4.975
  96.7000           242.164       4.938
  96.7500           238.615       4.973
  96.8000           237.402       4.970
  96.8500           233.298       4.927
  96.9000           240.216       4.940
  96.9500           241.414       4.934
  97.0000           246.270       4.983
  97.0500           241.645       4.954
  97.1000           241.138       4.916
  97.1500           240.705       4.959
  97.2000           234.742       4.872
  97.2500           234.593       4.897
  97.3000           238.389       4.925
  97.3500           237.411       4.914
  97.4000           240.258       4.936
  97.4500           230.215       4.830
  97.5000           231.204       4.820
  97.5500           235.319       4.887
  97.6000           241.979       4.935
  97.6500           229.629       4.818
  97.7000           229.200       4.798
  97.7500           228.823       4.825
  97.8000           229.177       4.866
  97.8500           234.689       4.848
  97.9000           233.406       4.882
  97.9500           229.725       4.853
  98.0000           234.954       4.905
  98.0500           235.492       4.895
  98.1000           238.617       4.885
  98.1500           243.911       4.981
  98.2000           250.500       5.007
  98.2500           254.493       5.071
  98.3000           255.752       5.074
  98.3500           255.778       5.086
  98.4000           265.193       5.199
  98.4500           265.369       5.194
  98.5000           288.556       5.429
  98.5500           320.582       5.665
  98.6000           369.529       6.119
  98.6500           442.558       6.652
  98.7000           532.271       7.306
  98.7500           618.792       7.869
  98.8000           692.903       8.329
  98.8500           752.123       8.678
  98.9000           791.319       8.902
  98.9500           827.275       9.103
  99.0000           821.080       9.068
  99.0500           796.233       8.929
  99.1000           754.471       8.692
  99.1500           719.397       8.485
  99.2000           650.450       8.069
  99.2500           560.649       7.489
  99.3000           473.410       6.880
  99.3500           402.168       6.355
  99.4000           349.251       5.911
  99.4500           312.617       5.594
  99.5000           299.193       5.485
  99.5500           280.897       5.310
  99.6000           265.886       5.164
  99.6500           267.631       5.188
  99.7000           270.644       5.224
  99.7500           255.506       5.107
  99.8000           251.815       5.093
  99.8500           251.061       5.100
  99.9000           252.590       5.079
  99.9500           249.527       5.015
 100.0000           249.801       5.050
 100.0500           238.157       4.939
 100.1000           238.365       4.930
 100.1500           250.463       5.090
 100.2000           246.305       5.018
 100.2500           250.225       5.101
 100.3000           237.780       4.961
 100.3500           236.485       4.934
 100.4000           241.459       4.955
 100.4500           234.085       4.880
 100.5000           235.353       4.926
 100.5500           233.647       4.865
 100.6000           237.413       4.880
 100.6500           241.303       4.954
 100.7000           232.330       4.917
 100.7500           238.907       5.005
 100.8000           232.475       4.881
 100.8500           236.466       4.881
 100.9000           239.752       4.904
 100.9500           231.249       4.865
 101.0000           229.462       4.849
 101.0500           229.852       4.914
 101.1000           238.932       4.955
 101.1500           235.733       4.961
 101.2000           241.618       4.991
 101.2500           240.921       4.941
 101.3000           240.955       4.952
 101.3500           242.957       4.933
 101.4000           243.769       5.005
 101.4500           246.374       5.013
 101.5000           238.855       4.926
 101.5500           246.114       4.964
 101.6000           233.999       4.852
 101.6500           238.190       4.960
 101.7000           232.799       4.898
 101.7500           231.912       4.870
 101.8000           238.129       4.933
 101.8500           231.335       4.920
 101.9000           237.569       4.912
 101.9500           228.532       4.800
 102.0000           235.186       4.856
 102.0500           232.003       4.817
 102.1000           232.922       4.827
 102.1500           228.678       4.841
 102.2000           237.124       4.909
 102.2500           234.863       4.957
 102.3000           235.749       4.904
 102.3500           241.491       4.929
 102.4000           244.157       5.007
 102.4500           242.239       4.952
 102.5000           238.390       4.933
 102.5500           239.659       4.975
 102.6000           242.574       4.949
 102.6500           237.414       4.939
 102.7000           235.598       4.920
 102.7500           238.341       5.064
 102.8000           248.702       4.990
 102.8500           242.517       4.941
 102.9000           237.960       4.902
 102.9500           244.998       4.966
 103.0000           243.310       4.990
 103.0500           246.413       5.005
 103.1000           243.364       5.058
 103.1500           250.043       5.104
 103.2000           243.106       5.006
 103.2500           246.831       5.038
 103.3000           244.349       5.015
 103.3500           247.336       5.039
 103.4000           252.271       5.037
 103.4500           253.946       5.042
 103.5000           245.193       5.015
 103.5500           240.255       4.988
 103.6000           234.419       4.888
 103.6500           246.941       5.073
 103.7000           244.547       4.968
 103.7500           246.122       5.018
 103.8000           246.024       5.004
 103.8500           251.971       5.039
 103.9000           258.674       5.134
 103.9500           251.916       5.077
 104.0000           253.699       5.053
 104.0500           271.639       5.239
 104.1000           273.084       5.292
 104.1500           284.267       5.361
 104.2000           298.675       5.501
 104.2500           334.294       5.828
 104.3000           392.012       6.263
 104.3500           466.649       6.829
 104.4000           580.844       7.622
 104.4500           728.410       8.530
 104.5000           933.994       9.665
 104.5500          1113.233      10.556
 104.6000          1233.709      11.115
 104.6500          1208.003      10.998
 104.7000          1105.230      10.520
 104.7500          1000.577      10.011
 104.8000           918.252       9.590
 104.8500           844.211       9.196
 104.9000           826.572       9.099
 104.9500           812.750       9.022
 105.0000           758.619       8.714
 105.0500           661.669       8.137
 105.1000           569.969       7.552
 105.1500           494.383       7.033
 105.2000           411.308       6.430
 105.2500           352.648       5.939
 105.3000           317.471       5.648
 105.3500           294.120       5.498
 105.4000           281.944       5.356
 105.4500           277.965       5.320
 105.5000           271.252       5.258
 105.5500           257.606       5.175
 105.6000           259.217       5.101
 105.6500           256.309       5.208
 105.7000           254.350       5.065
 105.7500           255.336       5.063
 105.8000           245.898       5.016
 105.8500           241.996       4.925
 105.9000           246.914       5.011
 105.9500           251.883       5.059
 106.0000           250.364       5.053
 106.0500           246.858       5.025
 106.1000           244.487       4.975
 106.1500           251.872       5.049
 106.2000           254.428       5.129
 106.2500           250.345       5.036
 106.3000           253.178       5.051
 106.3500           245.692       4.965
 106.4000           246.626       5.015
 106.4500           247.449       5.124
 106.5000           250.250       5.171
 106.5500           252.739       5.165
 106.6000           248.134       5.065
 106.6500           241.647       4.944
 106.7000           250.464       5.059
 106.7500           248.138       4.992
 106.8000           237.559       4.909
 106.8500           233.565       4.905
 106.9000           242.135       4.942
 106.9500           254.357       5.091
 107.0000           250.878       5.044
 107.0500           246.516       4.981
 107.1000           241.532       4.931
 107.1500           241.346       4.938
 107.2000           243.844       5.025
 107.2500           243.048       4.967
 107.3000           248.992       5.027
 107.3500           238.732       4.963
 107.4000           242.867       4.942
 107.4500           253.068       5.059
 107.5000           255.897       5.077
 107.5500           254.497       5.094
 107.6000           250.371       5.110
 107.6500           249.574       5.036
 107.7000           253.489       5.069
 107.7500           260.735       5.264
 107.8000           271.765       5.288
 107.8500           282.964       5.342
 107.9000           294.436       5.467
 107.9500           320.129       5.676
 108.0000           340.189       5.905
 108.0500           361.009       6.021
 108.1000           372.366       6.104
 108.1500           379.538       6.165
 108.2000           401.704       6.382
 108.2500           415.474       6.448
 108.3000           420.684       6.492
 108.3500           418.870       6.483
 108.4000           394.792       6.292
 108.4500           376.810       6.151
 108.5000           340.959       5.852
 108.5500           325.559       5.729
 108.6000           288.998       5.493
 108.6500           282.887       5.365
 108.7000           277.139       5.293
 108.7500           273.731       5.250
 108.8000           267.413       5.228
 108.8500           265.508       5.184
 108.9000           279.527       5.325
 108.9500           297.582       5.456
 109.0000           328.542       5.736
 109.0500           363.672       6.043
 109.1000           413.273       6.432
 109.1500           474.043       6.885
 109.2000           542.331       7.366
 109.2500           629.028       7.934
 109.3000           704.041       8.397
 109.3500           739.993       8.609
 109.4000           762.521       8.738
 109.4500           751.178       8.673
 109.5000           736.360       8.586
 109.5500           690.107       8.312
 109.6000           658.961       8.124
 109.6500           614.671       7.849
 109.7000           552.912       7.441
 109.7500           491.351       7.013
 109.8000           433.141       6.604
 109.8500           380.862       6.258
 109.9000           343.417       5.982
 109.9500           318.146       5.657
 110.0000           296.352       5.489
 110.0500           277.094       5.296
 110.1000           272.403       5.253
 110.1500           264.272       5.273
 110.2000           258.724       5.274
 110.2500           270.103       5.283
 110.3000           264.252       5.252
 110.3500           259.829       5.117
 110.4000           268.023       5.187
 110.4500           262.741       5.152
 110.5000           255.933       5.070
 110.5500           255.976       5.059
 110.6000           256.185       5.072
 110.6500           262.993       5.149
 110.7000           252.830       5.051
 110.7500           252.428       5.086
 110.8000           248.563       5.088
 110.8500           254.062       5.157
 110.9000           254.057       5.134
 110.9500           262.064       5.174
 111.0000           264.925       5.223
 111.0500           265.053       5.228
 111.1000           260.570       5.144
 111.1500           259.373       5.118
 111.2000           259.407       5.132
 111.2500           259.813       5.099
 111.3000           269.154       5.207
 111.3500           263.930       5.155
 111.4000           255.402       5.093
 111.4500           253.699       5.105
 111.5000           262.671       5.170
 111.5500           257.967       5.105
 111.6000           256.191       5.124
 111.6500           251.239       5.105
 111.7000           248.973       5.043
 111.7500           251.479       5.119
 111.8000           257.243       5.129
 111.8500           254.525       5.093
 111.9000           253.752       5.123
 111.9500           254.404       5.161
 112.0000           259.586       5.135
 112.0500           253.768       5.154
 112.1000           252.061       5.091
 112.1500           256.713       5.102
 112.2000           258.216       5.160
 112.2500           259.583       5.162
 112.3000           255.465       5.160
 112.3500           254.785       5.110
 112.4000           256.561       5.123
 112.4500           254.128       5.096
 112.5000           249.544       5.084
 112.5500           258.055       5.160
 112.6000           255.893       5.094
 112.6500           258.612       5.089
 112.7000           267.645       5.180
 112.7500           258.249       5.141
 112.8000           258.734       5.175
 112.8500           258.745       5.128
 112.9000           258.080       5.113
 112.9500           266.678       5.187
 113.0000           265.488       5.171
 113.0500           259.859       5.181
 113.1000           264.997       5.237
 113.1500           256.823       5.176
 113.2000           255.625       5.122
 113.2500           264.681       5.203
 113.3000           260.150       5.145
 113.3500           261.375       5.177
 113.4000           268.292       5.238
 113.4500           272.177       5.241
 113.5000           281.416       5.339
 113.5500           280.519       5.335
 113.6000           290.386       5.422
 113.6500           320.124       5.698
 113.7000           352.190       5.965
 113.7500           387.946       6.230
 113.8000           456.261       6.755
 113.8500           564.062       7.508
 113.9000           701.839       8.377
 113.9500           876.777       9.367
 114.0000          1060.427      10.303
 114.0500          1229.678      11.100
 114.1000          1305.932      11.438
 114.1500          1389.715      11.801
 114.2000          1464.918      12.117
 114.2500          1510.356      12.303
 114.3000          1517.308      12.330
 114.3500          1488.819      12.214
 114.4000          1451.748      12.062
 114.4500          1422.949      11.939
 114.5000          1339.275      11.582
 114.5500          1183.873      10.886
 114.6000          1000.153      10.004
 114.6500           809.569       9.000
 114.7000           660.159       8.128
 114.7500           552.358       7.436
 114.8000           474.978       6.896
 114.8500           407.450       6.411
 114.9000           353.857       6.021
 114.9500           324.979       5.713
 115.0000           319.758       5.681
 115.0500           291.356       5.413
 115.1000           281.744       5.370
 115.1500           276.369       5.277
 115.2000           274.339       5.253
 115.2500           276.900       5.305
 115.3000           267.564       5.230
 115.3500           260.660       5.149
 115.4000           268.785       5.202
 115.4500           267.237       5.190
 115.5000           261.667       5.159
 115.5500           258.065       5.098
 115.6000           268.025       5.194
 115.6500           268.572       5.209
 115.7000           260.476       5.131
 115.7500           260.818       5.160
 115.8000           267.800       5.201
 115.8500           271.267       5.235
 115.9000           265.472       5.171
 115.9500           270.153       5.201
 116.0000           269.250       5.208
 116.0500           270.722       5.211
 116.1000           264.185       5.189
 116.1500           265.880       5.163
 116.2000           271.738       5.224
 116.2500           269.569       5.230
 116.3000           264.139       5.211
 116.3500           265.452       5.212
 116.4000           272.574       5.300
 116.4500           267.178       5.223
 116.5000           258.207       5.097
 116.5500           254.190       5.059
 116.6000           251.633       5.054
 116.6500           259.263       5.141
 116.7000           258.656       5.153
 116.7500           264.539       5.305
 116.8000           263.332       5.315
 116.8500           263.714       5.218
 116.9000           267.709       5.208
 116.9500           262.110       5.125
 117.0000           257.801       5.091
 117.0500           260.047       5.109
 117.1000           261.817       5.171
 117.1500           253.915       5.080
 117.2000           255.309       5.079
 117.2500           265.713       5.193
 117.3000           275.253       5.251
 117.3500           275.897       5.293
 117.4000           279.709       5.363
 117.4500           301.714       5.504
 117.5000           324.447       5.720
 117.5500           351.773       5.941
 117.6000           369.389       6.082
 117.6500           395.195       6.292
 117.7000           417.381       6.466
 117.7500           448.299       6.704
 117.8000           493.689       7.031
 117.8500           551.129       7.429
 117.9000           626.340       7.920
 117.9500           718.575       8.482
 118.0000           804.046       8.974
 118.0500           856.781       9.263
 118.1000           880.426       9.391
 118.1500           854.955       9.256
 118.2000           781.088       8.860
 118.2500           686.385       8.289
 118.3000           600.863       7.754
 118.3500           514.563       7.177
 118.4000           436.700       6.620
 118.4500           377.627       6.167
 118.5000           338.953       5.836
 118.5500           316.556       5.670
 118.6000           313.586       5.624
 118.6500           297.027       5.463
 118.7000           294.525       5.430
 118.7500           301.948       5.497
 118.8000           307.178       5.556
 118.8500           309.383       5.599
 118.9000           314.030       5.661
 118.9500           334.729       5.817
 119.0000           347.401       5.924
 119.0500           349.363       5.932
 119.1000           364.010       6.042
 119.1500           395.896       6.333
 119.2000           439.156       6.638
 119.2500           473.053       6.890
 119.3000           526.334       7.261
 119.3500           544.558       7.387
 119.4000           543.257       7.381
 119.4500           528.379       7.272
 119.5000           471.079       6.873
 119.5500           425.770       6.543
 119.6000           391.034       6.256
 119.6500           349.494       5.940
 119.7000           323.878       5.714
 119.7500           303.217       5.514
 119.8000           299.171       5.476
 119.8500           290.579       5.422
 119.9000           274.046       5.252
 119.9500           263.254       5.142
 120.0000           261.552       5.218
 120.0500           265.760       5.256
 120.1000           267.637       5.231
 120.1500           257.648       5.220
 120.2000           260.877       5.287
 120.2500           261.942       5.146
 120.3000           262.228       5.179
 120.3500           259.608       5.152
 120.4000           263.349       5.179
 120.4500           267.418       5.193
 120.5000           265.284       5.250
 120.5500           263.166       5.171
 120.6000           257.845       5.123
 120.6500           258.619       5.095
 120.7000           259.848       5.106
 120.7500           262.658       5.196
 120.8000           268.640       5.224
 120.8500           259.328       5.135
 120.9000           253.817       5.050
 120.9500           265.719       5.158
 121.0000           264.954       5.161
 121.0500           266.444       5.272
 121.1000           263.482       5.238
 121.1500           264.027       5.164
 121.2000           262.306       5.130
 121.2500           266.731       5.179
 121.3000           268.111       5.212
 121.3500           268.085       5.222
 121.4000           258.398       5.116
 121.4500           264.736       5.172
 121.5000           258.503       5.101
 121.5500           263.427       5.153
 121.6000           254.226       5.107
 121.6500           264.723       5.164
 121.7000           253.428       5.137
 121.7500           262.681       5.219
 121.8000           261.399       5.144
 121.8500           259.045       5.177
 121.9000           254.700       5.101
 121.9500           252.296       5.077
 122.0000           261.011       5.113
 122.0500           262.819       5.144
 122.1000           260.531       5.160
 122.1500           261.030       5.144
 122.2000           268.895       5.198
 122.2500           271.077       5.218
 122.3000           265.171       5.179
 122.3500           259.763       5.109
 122.4000           268.873       5.190
 122.4500           266.430       5.210
 122.5000           269.413       5.202
 122.5500           273.085       5.257
 122.6000           267.391       5.201
 122.6500           270.546       5.238
 122.7000           280.459       5.320
 122.7500           270.831       5.242
 122.8000           279.114       5.338
 122.8500           273.269       5.254
 122.9000           278.313       5.287
 122.9500           278.386       5.317
 123.0000           267.591       5.222
 123.0500           276.999       5.268
 123.1000           281.066       5.303
 123.1500           272.610       5.244
 123.2000           276.780       5.305
 123.2500           276.653       5.268
 123.3000           280.976       5.342
 123.3500           280.430       5.389
 123.4000           287.955       5.372
 123.4500           296.313       5.482
 123.5000           289.273       5.416
 123.5500           285.838       5.445
 123.6000           299.462       5.493
 123.6500           308.620       5.562
 123.7000           328.117       5.734
 123.7500           343.222       5.864
 123.8000           376.020       6.137
 123.8500           426.143       6.533
 123.9000           484.131       6.964
 123.9500           570.814       7.559
 124.0000           717.521       8.475
 124.0500           878.630       9.381
 124.1000          1058.630      10.297
 124.1500          1238.039      11.141
 124.2000          1394.071      11.822
 124.2500          1545.578      12.447
 124.3000          1746.839      13.233
 124.3500          1972.243      14.059
 124.4000          2281.678      15.122
 124.4500          2594.886      16.128
 124.5000          2785.692      16.713
 124.5500          2873.096      16.975
 124.6000          2870.833      16.966
 124.6500          2786.025      16.716
 124.7000          2658.346      16.327
 124.7500          2502.142      15.838
 124.8000          2313.501      15.228
 124.8500          2037.813      14.288
 124.9000          1729.656      13.163
 124.9500          1398.102      11.832
 125.0000          1109.178      10.537
 125.0500           890.136       9.442
 125.1000           717.598       8.477
 125.1500           579.062       7.614
 125.2000           500.607       7.093
 125.2500           445.707       6.704
 125.3000           400.855       6.348
 125.3500           362.666       6.030
 125.4000           345.848       5.898
 125.4500           337.148       5.821
 125.5000           331.979       5.792
 125.5500           318.952       5.653
 125.6000           304.453       5.523
 125.6500           304.659       5.531
 125.7000           300.881       5.510
 125.7500           298.467       5.484
 125.8000           300.676       5.487
 125.8500           292.326       5.410
 125.9000           287.720       5.368
 125.9500           292.561       5.413
 126.0000           291.792       5.425
 126.0500           287.813       5.389
 126.1000           289.192       5.432
 126.1500           281.694       5.342
 126.2000           281.295       5.307
 126.2500           281.749       5.350
 126.3000           285.456       5.384
 126.3500           289.929       5.413
 126.4000           285.285       5.345
 126.4500           285.628       5.347
 126.5000           278.680       5.371
 126.5500           276.832       5.331
 126.6000           274.354       5.274
 126.6500           279.114       5.292
 126.7000           281.431       5.306
 126.7500           287.835       5.374
 126.8000           281.810       5.370
 126.8500           269.379       5.259
 126.9000           274.561       5.265
 126.9500           276.932       5.320
 127.0000           274.173       5.261
 127.0500           276.391       5.268
 127.1000           272.553       5.262
 127.1500           273.306       5.241
 127.2000           274.678       5.258
 127.2500           277.439       5.275
 127.3000           271.966       5.251
 127.3500           270.452       5.230
 127.4000           283.603       5.349
 127.4500           277.031       5.371
 127.5000           281.031       5.313
 127.5500           274.215       5.278
 127.6000           273.644       5.239
 127.6500           279.702       5.328
 127.7000           272.801       5.247
 127.7500           284.754       5.346
 127.8000           269.693       5.209
 127.8500           274.945       5.310
 127.9000           283.498       5.331
 127.9500           293.288       5.457
 128.0000           299.893       5.521
 128.0500           311.628       5.609
 128.1000           327.064       5.766
 128.1500           349.809       5.924
 128.2000           377.788       6.175
 128.2500           405.623       6.375
 128.3000           445.215       6.678
 128.3500           506.024       7.121
 128.4000           573.223       7.581
 128.4500           623.431       7.904
 128.5000           682.426       8.272
 128.5500           689.576       8.338
 128.6000           686.940       8.299
 128.6500           694.849       8.348
 128.7000           694.930       8.349
 128.7500           702.652       8.394
 128.8000           698.308       8.367
 128.8500           691.145       8.325
 128.9000           693.648       8.339
 128.9500           687.430       8.301
 129.0000           674.745       8.225
 129.0500           603.014       7.780
 129.1000           563.653       7.551
 129.1500           527.880       7.273
 129.2000           469.281       6.859
 129.2500           438.037       6.634
 129.3000           410.083       6.441
 129.3500           386.982       6.239
 129.4000           381.336       6.186
 129.4500           383.883       6.203
 129.5000           391.291       6.262
 129.5500           419.588       6.484
 129.6000           464.002       6.818
 129.6500           534.095       7.319
 129.7000           572.161       7.580
 129.7500           620.961       7.888
 129.8000           652.509       8.089
 129.8500           666.251       8.173
 129.9000           670.642       8.201
 129.9500           673.636       8.220
 130.0000           672.941       8.217
 130.0500           683.277       8.278
 130.1000           712.459       8.452
 130.1500           749.864       8.671
 130.2000           761.770       8.739
 130.2500           777.163       8.826
 130.3000           762.657       8.748
 130.3500           752.386       8.689
 130.4000           730.626       8.558
 130.4500           700.731       8.381
 130.5000           654.364       8.099
 130.5500           591.647       7.700
 130.6000           525.687       7.268
 130.6500           471.822       6.887
 130.7000           413.178       6.447
 130.7500           391.020       6.262
 130.8000           365.660       6.070
 130.8500           344.988       5.885
 130.9000           327.326       5.737
 130.9500           318.303       5.664
 131.0000           301.912       5.527
 131.0500           291.606       5.418
 131.1000           291.234       5.463
 131.1500           293.193       5.465
 131.2000           279.570       5.292
 131.2500           281.050       5.312
 131.3000           286.598       5.399
 131.3500           282.930       5.349
 131.4000           291.847       5.415
 131.4500           283.749       5.394
 131.5000           281.984       5.344
 131.5500           280.976       5.324
 131.6000           279.009       5.303
 131.6500           279.471       5.300
 131.7000           272.205       5.259
 131.7500           274.705       5.323
 131.8000           269.403       5.216
 131.8500           272.506       5.238
 131.9000           279.938       5.314
 131.9500           279.768       5.314
 132.0000           283.361       5.347
 132.0500           280.962       5.328
 132.1000           275.748       5.268
 132.1500           269.477       5.272
 132.2000           273.558       5.270
 132.2500           271.782       5.247
 132.3000           285.876       5.381
 132.3500           287.261       5.422
 132.4000           279.748       5.358
 132.4500           276.208       5.276
 132.5000           287.795       5.388
 132.5500           280.881       5.318
 132.6000           289.921       5.392
 132.6500           277.083       5.278
 132.7000           280.134       5.298
 132.7500           275.875       5.264
 132.8000           275.888       5.285
 132.8500           279.980       5.334
 132.9000           273.748       5.280
 132.9500           272.760       5.333
 133.0000           277.375       5.306
 133.0500           281.907       5.322
 133.1000           278.622       5.318
 133.1500           279.588       5.354
 133.2000           285.827       5.388
 133.2500           282.847       5.352
 133.3000           288.337       5.386
 133.3500           282.611       5.344
 133.4000           281.699       5.328
 133.4500           282.953       5.365
 133.5000           275.599       5.281
 133.5500           277.868       5.310
 133.6000           277.347       5.305
 133.6500           280.805       5.311
 133.7000           279.335       5.297
 133.7500           275.710       5.309
 133.8000           278.054       5.356
 133.8500           278.471       5.351
 133.9000           278.229       5.314
 133.9500           268.136       5.297
 134.0000           271.724       5.313
 134.0500           272.792       5.323
 134.1000           272.056       5.379
 134.1500           271.226       5.332
 134.2000           268.525       5.359
 134.2500           275.430       5.310
 134.3000           272.633       5.336
 134.3500           280.341       5.326
 134.4000           273.419       5.262
 134.4500           280.045       5.304
 134.5000           273.279       5.285
 134.5500           282.038       5.391
 134.6000           276.691       5.290
 134.6500           279.269       5.346
 134.7000           272.842       5.333
 134.7500           273.111       5.276
 134.8000           272.500       5.266
 134.8500           273.246       5.319
 134.9000           278.808       5.337
 134.9500           274.973       5.293
 135.0000           270.507       5.280
 135.0500           280.179       5.352
 135.1000           275.507       5.325
 135.1500           274.033       5.316
 135.2000           277.961       5.309
 135.2500           282.040       5.325
 135.3000           271.429       5.220
 135.3500           279.675       5.305
 135.4000           279.870       5.312
 135.4500           286.880       5.396
 135.5000           292.417       5.441
 135.5500           296.523       5.531
 135.6000           309.336       5.655
 135.6500           325.119       5.742
 135.7000           346.203       5.915
 135.7500           366.002       6.061
 135.8000           394.199       6.289
 135.8500           428.017       6.554
 135.9000           469.070       6.859
 135.9500           517.607       7.206
 136.0000           567.937       7.548
 136.0500           613.960       7.849
 136.1000           660.782       8.143
 136.1500           708.644       8.431
 136.2000           752.193       8.687
 136.2500           773.249       8.811
 136.3000           796.951       8.943
 136.3500           811.795       9.028
 136.4000           807.441       9.003
 136.4500           791.742       8.913
 136.5000           787.280       8.889
 136.5500           761.769       8.745
 136.6000           710.276       8.442
 136.6500           661.225       8.146
 136.7000           591.943       7.736
 136.7500           534.788       7.326
 136.8000           481.709       6.952
 136.8500           435.035       6.608
 136.9000           389.755       6.255
 136.9500           365.150       6.066
 137.0000           350.617       5.964
 137.0500           329.477       5.781
 137.1000           301.706       5.561
 137.1500           298.777       5.625
 137.2000           296.304       5.463
 137.2500           286.434       5.389
 137.3000           287.512       5.372
 137.3500           283.382       5.336
 137.4000           279.410       5.303
 137.4500           286.518       5.362
 137.5000           278.657       5.305
 137.5500           271.078       5.246
 137.6000           270.429       5.249
 137.6500           268.698       5.207
 137.7000           272.021       5.290
 137.7500           283.469       5.333
 137.8000           274.048       5.355
 137.8500           267.718       5.221
 137.9000           272.781       5.303
 137.9500           275.633       5.329
 138.0000           268.827       5.213
 138.0500           271.058       5.222
 138.1000           272.261       5.230
 138.1500           277.904       5.292
 138.2000           279.088       5.359
 138.2500           264.276       5.192
 138.3000           262.711       5.245
 138.3500           267.196       5.214
 138.4000           275.170       5.284
 138.4500           275.044       5.304
 138.5000           277.216       5.318
 138.5500           280.255       5.319
 138.6000           279.337       5.301
 138.6500           275.797       5.282
 138.7000           278.025       5.286
 138.7500           275.616       5.293
 138.8000           270.916       5.260
 138.8500           281.551       5.321
 138.9000           278.257       5.291
 138.9500           270.749       5.247
 139.0000           274.298       5.249
 139.0500           270.098       5.206
 139.1000           276.117       5.297
 139.1500           270.591       5.296
 139.2000           273.761       5.269
 139.2500           274.299       5.257
 139.3000           278.838       5.293
 139.3500           282.215       5.321
 139.4000           274.151       5.277
 139.4500           269.523       5.248
 139.5000           276.613       5.293
 139.5500           274.116       5.247
 139.6000           275.114       5.260
 139.6500           269.534       5.229
 139.7000           280.982       5.334
 139.7500           273.982       5.286
 139.8000           268.042       5.191
 139.8500           271.550       5.248
 139.9000           277.104       5.333
 139.9500           268.775       5.269
 140.0000           276.807       5.295
 140.0500           275.691       5.296
 140.1000           279.929       5.364
 140.1500           283.938       5.342
 140.2000           274.114       5.249
 140.2500           273.548       5.267
 140.3000           274.285       5.297
 140.3500           271.112       5.305
 140.4000           278.125       5.300
 140.4500           284.460       5.358
 140.5000           276.043       5.285
 140.5500           289.246       5.408
 140.6000           294.574       5.442
 140.6500           304.555       5.530
 140.7000           314.817       5.630
 140.7500           319.293       5.718
 140.8000           340.399       5.862
 140.8500           346.810       5.902
 140.9000           368.927       6.087
 140.9500           371.716       6.109
 141.0000           394.819       6.297
 141.0500           405.943       6.386
 141.1000           414.250       6.451
 141.1500           422.636       6.526
 141.2000           432.528       6.601
 141.2500           434.038       6.618
 141.3000           431.537       6.599
 141.3500           424.971       6.535
 141.4000           432.208       6.588
 141.4500           414.849       6.456
 141.5000           412.260       6.436
 141.5500           412.569       6.437
 141.6000           414.225       6.467
 141.6500           428.164       6.563
 141.7000           431.465       6.595
 141.7500           439.030       6.639
 141.8000           440.989       6.664
 141.8500           439.030       6.652
 141.9000           438.803       6.640
 141.9500           446.640       6.702
 142.0000           434.327       6.606
 142.0500           417.554       6.476
 142.1000           413.376       6.444
 142.1500           386.894       6.272
 142.2000           371.680       6.117
 142.2500           353.413       5.964
 142.3000           330.855       5.776
 142.3500           317.057       5.644
 142.4000           310.155       5.590
 142.4500           304.541       5.572
 142.5000           297.153       5.521
 142.5500           295.793       5.492
 142.6000           290.071       5.437
 142.6500           291.207       5.408
 142.7000           292.057       5.427
 142.7500           286.151       5.396
 142.8000           286.581       5.394
 142.8500           285.811       5.370
 142.9000           287.155       5.415
 142.9500           286.515       5.466
 143.0000           290.569       5.489
 143.0500           282.046       5.324
 143.1000           278.862       5.304
 143.1500           293.889       5.468
 143.2000           287.293       5.420
 143.2500           290.193       5.452
 143.3000           289.648       5.469
 143.3500           277.910       5.288
 143.4000           282.780       5.351
 143.4500           287.758       5.405
 143.5000           287.255       5.381
 143.5500           285.043       5.381
 143.6000           285.474       5.444
 143.6500           293.032       5.429
 143.7000           286.184       5.390
 143.7500           280.142       5.327
 143.8000           285.268       5.387
 143.8500           281.238       5.335
 143.9000           288.181       5.405
 143.9500           278.906       5.344
 144.0000           276.723       5.304
 144.0500           284.053       5.369
 144.1000           284.025       5.363
 144.1500           287.950       5.417
 144.2000           277.953       5.332
 144.2500           280.253       5.356
 144.3000           287.087       5.427
 144.3500           283.412       5.365
 144.4000           286.719       5.373
 144.4500           277.994       5.308
 144.5000           276.110       5.305
 144.5500           282.468       5.375
 144.6000           287.239       5.413
 144.6500           294.478       5.483
 144.7000           297.777       5.534
 144.7500           281.196       5.356
 144.8000           278.780       5.297
 144.8500           280.223       5.307
 144.9000           287.174       5.382
 144.9500           277.165       5.373
 145.0000           285.407       5.427
 145.0500           290.490       5.420
 145.1000           283.739       5.401
 145.1500           294.250       5.463
 145.2000           288.235       5.394
 145.2500           290.061       5.424
 145.3000           291.833       5.430
 145.3500           286.260       5.368
 145.4000           286.418       5.404
 145.4500           298.328       5.496
 145.5000           295.706       5.469
 145.5500           283.614       5.390
 145.6000           286.024       5.475
 145.6500           289.250       5.418
 145.7000           293.432       5.465
 145.7500           289.633       5.457
 145.8000           283.394       5.416
 145.8500           277.399       5.395
 145.9000           293.506       5.551
 145.9500           297.464       5.603
 146.0000           295.708       5.611
 146.0500           296.397       5.633
 146.1000           298.384       5.714
 146.1500           290.445       5.632
 146.2000           295.825       5.699
 146.2500           289.884       5.716
 146.3000           287.875       5.668
 146.3500           288.937       5.699
 146.4000           286.542       5.677
 146.4500           292.897       5.722
 146.5000           285.860       5.651
 146.5500           281.142       5.659
 146.6000           288.041       5.731
 146.6500           291.318       5.712
 146.7000           284.048       5.639
 146.7500           293.678       5.728
 146.8000           296.986       5.775
 146.8500           292.136       5.716
 146.9000           290.824       5.700
 146.9500           290.205       5.693
 147.0000           290.946       5.711
 147.0500           281.356       5.608
 147.1000           290.008       5.712
 147.1500           289.982       5.694
 147.2000           291.630       5.708
 147.2500           294.917       5.740
 147.3000           293.973       5.736
 147.3500           290.875       5.709
 147.4000           305.627       5.850
 147.4500           304.775       5.836
 147.5000           294.431       5.790
 147.5500           287.035       5.675
 147.6000           302.891       5.830
 147.6500           301.955       5.853
 147.7000           295.644       5.801
 147.7500           298.587       5.777
 147.8000           302.546       5.819
 147.8500           310.005       5.895
 147.9000           299.498       5.798
 147.9500           304.809       5.880
 148.0000           297.091       5.801
 148.0500           307.693       5.887
 148.1000           309.042       5.883
 148.1500           315.289       5.965
 148.2000           320.853       6.076
 148.2500           317.363       6.014
 148.3000           319.430       6.063
 148.3500           323.116       6.155
 148.4000           324.395       6.145
 148.4500           321.503       6.129
 148.5000           321.537       6.179
 148.5500           325.401       6.230
 148.6000           324.605       6.245
 148.6500           322.221       6.287
 148.7000           327.852       6.399
 148.7500           318.379       6.369
 148.8000           319.453       6.361
 148.8500           316.969       6.319
 148.9000           317.612       6.337
 148.9500           308.041       6.247
 149.0000           305.748       6.209
 149.0500           310.760       6.251
 149.1000           313.257       6.274
 149.1500           306.295       6.205
 149.2000           305.213       6.201
 149.2500           304.996       6.246
 149.3000           305.784       6.239
 149.3500           319.472       6.349
 149.4000           312.981       6.319
 149.4500           308.295       6.290
 149.5000           322.848       6.459
 149.5500           312.221       6.359
 149.6000           306.236       6.331
 149.6500           313.310       6.455
 149.7000           312.049       6.444
 149.7500           321.387       6.601
 149.8000           318.069       6.606
 149.8500           327.901       6.708
 149.9000           329.212       6.771
 149.9500           327.706       6.812
 150.0000           340.429       7.018
 150.0500           344.739       7.073
 150.1000           336.345       6.994
 150.1500           350.678       7.107
 150.2000           380.809       7.414
 150.2500           397.933       7.577
 150.3000           414.213       7.732
 150.3500           430.921       7.897
 150.4000           470.074       8.229
 150.4500           500.062       8.487
 150.5000           566.834       9.037
 150.5500           611.481       9.399
 150.6000           692.673      10.037
 150.6500           753.620      10.511
 150.7000           838.383      11.118
 150.7500           927.525      11.728
 150.8000          1006.592      12.275
 150.8500          1059.036      12.623
 150.9000          1141.531      13.153
 150.9500          1194.522      13.527
 151.0000          1251.878      13.921
 151.0500          1322.371      14.389
 151.1000          1390.088      14.847
 151.1500          1440.590      15.222
 151.2000          1501.976      15.711
 151.2500          1573.699      16.272
 151.3000          1648.249      16.651
 151.3500          1726.620      17.040
 151.4000          1815.411      17.477
 151.4500          1894.949      17.856
 151.5000          1980.486      18.255
 151.5500          2023.716      18.450
 151.6000          2045.562      18.548
 151.6500          2071.826      18.665
 151.7000          2158.758      19.053
 151.7500          2121.991      18.900
 151.8000          2116.668      18.918
 151.8500          2130.929      19.045
 151.9000          2078.918      18.883
 151.9500          1992.000      18.550
 152.0000          1947.711      18.404
 152.0500          1858.818      18.054
 152.1000          1716.094      17.428
 152.1500          1600.070      16.918
 152.2000          1480.542      16.377
 152.2500          1348.920      15.756
 152.3000          1240.827      15.216
 152.3500          1140.139      14.698
 152.4000          1030.052      14.070
 152.4500           938.744      13.590
 152.5000           829.870      12.950
 152.5500           774.667      12.515
 152.6000           715.344      12.022
 152.6500           628.508      11.269
 152.7000           596.092      10.972
 152.7500           533.924      10.390
 152.8000           499.883      10.068
 152.8500           465.277       9.696
 152.9000           431.518       9.331
 152.9500           411.277       9.111
 153.0000           401.030       9.037
 153.0500           388.555       8.932
 153.1000           377.632       8.839
 153.1500           390.917       9.047
 153.2000           364.900       8.820
 153.2500           361.640       8.795
 153.3000           355.817       8.752
 153.3500           346.702       8.695
 153.4000           344.934       8.707
 153.4500           358.433       8.931
 153.5000           360.315       9.034
 153.5500           355.027       9.020
 153.6000           339.288       8.900
 153.6500           336.471       8.920
 153.7000           340.338       9.111
 153.7500           339.675       9.249
 153.8000           337.918       9.223
 153.8500           340.326       9.259
 153.9000           330.820       9.124
 153.9500           345.701       9.326
 154.0000           343.524       9.288
 154.0500           342.916       9.286
 154.1000           321.011       8.994
 154.1500           332.010       9.147
 154.2000           343.125       9.329
 154.2500           339.448       9.336
 154.3000           343.735       9.431
 154.3500           332.857       9.332
 154.4000           323.785       9.282
 154.4500           326.644       9.375
 154.5000           336.750       9.557
 154.5500           336.921       9.646
 154.6000           326.570       9.544
 154.6500           332.008       9.676
 154.7000           347.696       9.994
 154.7500           324.397       9.717
 154.8000           328.071       9.868
 154.8500           335.392      10.122
 154.9000           320.788       9.987
 154.9500           330.568      10.319
 155.0000           339.559      10.678
 155.0500           327.280      10.472
 155.1000           318.116      10.325
 155.1500           335.545      10.603
 155.2000           324.305      10.426
 155.2500           310.192      10.202
 155.3000           323.989      10.429
 155.3500           319.785      10.363
 155.4000           322.415      10.451
 155.4500           329.296      10.661
 155.5000           329.812      10.742
 155.5500           337.146      10.963
 155.6000           332.677      10.979
 155.6500           323.606      10.930
 155.7000           341.031      11.282
 155.7500           332.897      11.232
 155.8000           323.884      11.191
 155.8500           325.980      11.458
 155.9000           313.092      11.208
 155.9500           316.875      11.373
 156.0000           334.619      11.834
 156.0500           309.374      11.516
 156.1000           311.875      11.709
 156.1500           319.128      12.046
 156.2000           310.279      12.155
 156.2500           314.537      12.571
 156.3000           329.311      12.867
 156.3500           332.403      12.938
 156.4000           298.911      12.240
 156.4500           312.293      12.531
 156.5000           323.771      12.742
 156.5500           313.633      12.550
 156.6000           309.910      12.621
 156.6500           307.155      12.850
 156.7000           290.597      12.749
 156.7500           309.535      13.221
 156.8000           303.980      13.422
 156.8500           314.404      13.895
 156.9000           319.442      13.963
 156.9500           302.847      13.584
 157.0000           303.471      13.975
 157.0500           321.034      14.596
 157.1000           328.907      14.913
 157.1500           308.043      14.800
 157.2000           312.750      15.205
 157.2500           323.737      15.663
 157.3000           315.885      15.613
 157.3500           318.168      16.164
 157.4000           337.770      17.062
 157.4500           317.392      17.048
 157.5000           329.662      18.171
 157.5500           338.350      18.425
 157.6000           321.183      17.895
 157.6500           316.008      17.757
 157.7000           325.622      18.058
 157.7500           322.709      17.989
 157.8000           345.429      18.596
 157.8500           345.509      18.538
 157.9000           336.710      18.361
 157.9500           374.348      19.402
 158.0000           382.678      19.567
 158.0500           353.290      18.806
 158.1000           348.717      18.687
 158.1500           350.445      18.710
 158.2000           384.621      19.616
 158.2500           381.996      19.554
 158.3000           434.772      20.916
 158.3500           414.967      20.424
 158.4000           409.389      20.288
 158.4500           431.415      20.792
 158.5000           421.141      20.590
 158.5500           425.197      20.671
 158.6000           439.594      21.045
 158.6500           443.823      21.145
 158.7000           470.511      21.736
 158.7500           471.722      21.835
 158.8000           475.993      21.932
 158.8500           515.243      22.782
 158.9000           493.753      22.234
 158.9500           512.361      22.851
 159.0000           505.318      22.893
 159.0500           506.834      23.261
 159.1000           537.589      24.329
 159.1500           544.837      24.866
 159.2000           607.980      26.809
 159.2500           599.666      26.867
 159.3000           609.205      27.597
 159.3500           571.132      27.250
 159.4000           638.873      29.788
 159.4500           648.105      30.535
 159.5000           630.144      30.849
 159.5500           655.207      32.173
 159.6000           606.793      32.012
 159.6500           656.179      34.754
 159.7000           643.116      35.839
 159.7500           637.529      37.585
 159.8000           606.622      39.563
 159.8500           587.511      41.857
 159.9000           437.439      40.012
 159.9500             0.000       0.000
