! d1b Date 17-Nov-11 Time 14:07:33 Run 130589 > 130592
! orf   brah  La2CoMnO6_300K  
!
! Created: Thu Nov 17 15:41:15 2011
! fullprof : INSTR=10
! Wave lenght 
! 2.520
! Monitor/counts   Counting time/sec 
!        5387923.   3600000.0
! Temperature: Sample, Regulation, Requested 
!            298.931     300.008     300.000
!  angle  counts   sigma (F9.3,F15.3,F9.2)
    0.790          6.000         2.4495
    0.890          3.000         1.7321
    0.990        742.000        27.2397
    1.090        755.000        27.4773
    1.190        691.000        26.2869
    1.290        649.000        25.4755
    1.390        656.000        25.6125
    1.490        717.000        26.7769
    1.590        747.000        27.3313
    1.690        734.000        27.0924
    1.790       1007.000        31.7333
    1.890       1469.000        38.3275
    1.990       2368.000        48.6621
    2.090       3129.000        55.9375
    2.190       3884.000        62.3217
    2.290       4985.000        70.6045
    2.390       6303.000        79.3914
    2.490       7682.000        87.6470
    2.590       8952.000        94.6150
    2.690      10361.000       101.7890
    2.790      11427.000       106.8971
    2.890      12297.000       110.8918
    2.990      13262.000       115.1608
    3.090      14387.000       119.9458
    3.190      15541.000       124.6635
    3.290      15945.000       126.2735
    3.390      16103.000       126.8976
    3.490      15910.000       126.1348
    3.590      15876.000       126.0000
    3.690      15290.000       123.6527
    3.790      15210.000       123.3288
    3.890      15307.000       123.7215
    3.990      14984.000       122.4091
    4.090      15073.000       122.7721
    4.190      14978.000       122.3846
    4.290      15025.000       122.5765
    4.390      14935.000       122.2088
    4.490      15325.000       123.7942
    4.590      15631.000       125.0240
    4.690      16134.000       127.0197
    4.790      16492.000       128.4212
    4.890      16973.000       130.2805
    4.990      17572.000       132.5594
    5.090      18007.000       134.1902
    5.190      18589.000       136.3415
    5.290      19284.000       138.8668
    5.390      19827.000       140.8084
    5.490      20118.000       141.8379
    5.590      20714.000       143.9236
    5.690      21405.000       146.3045
    5.790      21809.000       147.6787
    5.890      22134.000       148.7750
    5.990      22818.000       151.0563
    6.090      23390.000       152.9379
    6.190      23617.000       153.6782
    6.290      23374.000       152.8856
    6.390      23598.000       153.6164
    6.490      23481.000       153.2351
    6.590      23542.000       153.4340
    6.690      23221.000       152.3844
    6.790      23062.000       151.8618
    6.890      22954.000       151.5058
    6.990      22780.000       150.9305
    7.090      22361.000       149.5359
    7.190      22152.000       148.8355
    7.290      21904.000       148.0000
    7.390      21615.000       147.0204
    7.490      21286.000       145.8972
    7.590      21040.000       145.0517
    7.690      20610.000       143.5618
    7.790      20278.000       142.4008
    7.890      19936.000       141.1949
    7.990      19897.000       141.0567
    8.090      19367.000       139.1654
    8.190      19010.000       137.8768
    8.290      18929.000       137.5827
    8.390      18284.000       135.2183
    8.490      18272.000       135.1740
    8.590      17852.000       133.6114
    8.690      17724.000       133.1315
    8.790      17030.000       130.4990
    8.890      16769.000       129.4952
    8.990      16484.000       128.3900
    9.090      16493.000       128.4251
    9.190      16117.000       126.9527
    9.290      15706.000       125.3236
    9.390      15576.000       124.8038
    9.490      15316.000       123.7578
    9.590      14832.000       121.7867
    9.690      14281.000       119.5031
    9.790      14175.000       119.0588
    9.890      13806.000       117.4989
    9.990      13411.000       115.8059
   10.090      13271.000       115.1998
   10.190      12955.000       113.8200
   10.290      12644.000       112.4455
   10.390      12422.000       111.4540
   10.490      12024.000       109.6540
   10.590      11876.000       108.9771
   10.690      11863.000       108.9174
   10.790      11570.000       107.5639
   10.890      11431.000       106.9159
   10.990      11323.000       106.4096
   11.090      11371.000       106.6349
   11.190      11171.000       105.6930
   11.290      11183.000       105.7497
   11.390      11181.000       105.7402
   11.490      10872.000       104.2689
   11.590      11139.000       105.5415
   11.690      10978.000       104.7760
   11.790      10945.000       104.6184
   11.890      10983.000       104.7998
   11.990      10935.000       104.5705
   12.090      11192.000       105.7923
   12.190      11049.000       105.1142
   12.290      10969.000       104.7330
   12.390      10883.000       104.3216
   12.490      10916.000       104.4797
   12.590      10946.000       104.6231
   12.690      10933.000       104.5610
   12.790      10878.000       104.2977
   12.890      11038.000       105.0619
   12.990      10690.000       103.3925
   13.090      10856.000       104.1921
   13.190      10904.000       104.4222
   13.290      10988.000       104.8237
   13.390      10882.000       104.3168
   13.490      10647.000       103.1843
   13.590      10846.000       104.1441
   13.690      10903.000       104.4174
   13.790      10883.000       104.3216
   13.890      10920.000       104.4988
   13.990      10718.000       103.5278
   14.090      11036.000       105.0524
   14.190      10887.000       104.3408
   14.290      10528.000       102.6060
   14.390      10880.000       104.3072
   14.490      10979.000       104.7807
   14.590      10843.000       104.1297
   14.690      10891.000       104.3600
   14.790      10710.000       103.4891
   14.890      10948.000       104.6327
   14.990      10907.000       104.4366
   15.090      10884.000       104.3264
   15.190      10680.000       103.3441
   15.290      10842.000       104.1249
   15.390      10685.000       103.3683
   15.490      10617.000       103.0388
   15.590      10671.000       103.3005
   15.690      10652.000       103.2085
   15.790      10808.000       103.9615
   15.890      10729.000       103.5809
   15.990      10959.000       104.6852
   16.090      10871.000       104.2641
   16.190      10651.000       103.2037
   16.290      10657.000       103.2327
   16.390      10624.000       103.0728
   16.490      10628.000       103.0922
   16.590      10721.000       103.5423
   16.690      10796.000       103.9038
   16.790      10729.000       103.5809
   16.890      10890.000       104.3552
   16.990      10595.000       102.9320
   17.090      10818.000       104.0096
   17.190      10882.000       104.3168
   17.290      10895.000       104.3791
   17.390      10857.000       104.1969
   17.490      10663.000       103.2618
   17.590      10722.000       103.5471
   17.690      10586.000       102.8883
   17.790      10959.000       104.6852
   17.890      10808.000       103.9615
   17.990      10754.000       103.7015
   18.090      10692.000       103.4021
   18.190      10994.000       104.8523
   18.290      10804.000       103.9423
   18.390      10814.000       103.9904
   18.490      11007.000       104.9143
   18.590      11016.000       104.9571
   18.690      11094.000       105.3281
   18.790      11009.000       104.9238
   18.890      10832.000       104.0769
   18.990      10756.000       103.7111
   19.090      10789.000       103.8701
   19.190      10736.000       103.6147
   19.290      10966.000       104.7187
   19.390      10716.000       103.5181
   19.490      10969.000       104.7330
   19.590      10652.000       103.2085
   19.690      10912.000       104.4605
   19.790      10884.000       104.3264
   19.890      10768.000       103.7690
   19.990      10609.000       103.0000
   20.090      10960.000       104.6900
   20.190      10719.000       103.5326
   20.290      10980.000       104.7855
   20.390      10748.000       103.6726
   20.490      10820.000       104.0192
   20.590      10873.000       104.2737
   20.690      11065.000       105.1903
   20.790      10804.000       103.9423
   20.890      10863.000       104.2257
   20.990      10843.000       104.1297
   21.090      10818.000       104.0096
   21.190      10792.000       103.8846
   21.290      10862.000       104.2209
   21.390      10859.000       104.2065
   21.490      11082.000       105.2711
   21.590      11117.000       105.4372
   21.690      11038.000       105.0619
   21.790      10761.000       103.7352
   21.890      10655.000       103.2231
   21.990      10914.000       104.4701
   22.090      10744.000       103.6533
   22.190      10866.000       104.2401
   22.290      10962.000       104.6996
   22.390      10680.000       103.3441
   22.490      10989.000       104.8284
   22.590      10744.000       103.6533
   22.690      10899.000       104.3983
   22.790      10870.000       104.2593
   22.890      10663.000       103.2618
   22.990      10902.000       104.4126
   23.090      10770.000       103.7786
   23.190      10990.000       104.8332
   23.290      10840.000       104.1153
   23.390      10904.000       104.4222
   23.490      10613.000       103.0194
   23.590      10962.000       104.6996
   23.690      10743.000       103.6484
   23.790      10856.000       104.1921
   23.890      10804.000       103.9423
   23.990      10867.000       104.2449
   24.090      10631.000       103.1067
   24.190      10825.000       104.0433
   24.290      10970.000       104.7378
   24.390      10826.000       104.0481
   24.490      10754.000       103.7015
   24.590      11003.000       104.8952
   24.690      10837.000       104.1009
   24.790      10996.000       104.8618
   24.890      11151.000       105.5983
   24.990      11139.000       105.5415
   25.090      10750.000       103.6822
   25.190      10909.000       104.4462
   25.290      10874.000       104.2785
   25.390      11020.000       104.9762
   25.490      11003.000       104.8952
   25.590      10996.000       104.8618
   25.690      11183.000       105.7497
   25.790      11247.000       106.0519
   25.890      10941.000       104.5992
   25.990      10974.000       104.7569
   26.090      10901.000       104.4079
   26.190      10918.000       104.4892
   26.290      10871.000       104.2641
   26.390      10901.000       104.4079
   26.490      11163.000       105.6551
   26.590      11086.000       105.2901
   26.690      10827.000       104.0529
   26.790      11063.000       105.1808
   26.890      10950.000       104.6423
   26.990      11069.000       105.2093
   27.090      10948.000       104.6327
   27.190      10922.000       104.5084
   27.290      11007.000       104.9143
   27.390      10944.000       104.6136
   27.490      10976.000       104.7664
   27.590      10888.000       104.3456
   27.690      11004.000       104.9000
   27.790      10868.000       104.2497
   27.890      11130.000       105.4988
   27.990      10994.000       104.8523
   28.090      10903.000       104.4174
   28.190      10939.000       104.5897
   28.290      11013.000       104.9428
   28.390      11116.000       105.4324
   28.490      10965.000       104.7139
   28.590      10823.000       104.0336
   28.690      10978.000       104.7760
   28.790      11171.000       105.6930
   28.890      11064.000       105.1855
   28.990      11173.000       105.7024
   29.090      11140.000       105.5462
   29.190      11107.000       105.3898
   29.290      11033.000       105.0381
   29.390      11200.000       105.8301
   29.490      11117.000       105.4372
   29.590      11097.000       105.3423
   29.690      11204.000       105.8489
   29.790      10965.000       104.7139
   29.890      11051.000       105.1237
   29.990      11111.000       105.4087
   30.090      11198.000       105.8206
   30.190      11130.000       105.4988
   30.290      10976.000       104.7664
   30.390      11163.000       105.6551
   30.490      11337.000       106.4753
   30.590      11195.000       105.8064
   30.690      11228.000       105.9623
   30.790      11043.000       105.0857
   30.890      11415.000       106.8410
   30.990      11678.000       108.0648
   31.090      11935.000       109.2474
   31.190      12185.000       110.3857
   31.290      11739.000       108.3467
   31.390      11530.000       107.3778
   31.490      11413.000       106.8316
   31.590      11215.000       105.9009
   31.690      11309.000       106.3438
   31.790      11205.000       105.8537
   31.890      11300.000       106.3015
   31.990      11459.000       107.0467
   32.090      11353.000       106.5505
   32.190      11297.000       106.2873
   32.290      12095.000       109.9773
   32.390      13450.000       115.9741
   32.490      15182.000       123.2153
   32.590      16147.000       127.0708
   32.690      15482.000       124.4267
   32.790      13965.000       118.1736
   32.890      12353.000       111.1441
   32.990      11606.000       107.7311
   33.090      11325.000       106.4190
   33.190      11471.000       107.1028
   33.290      11260.000       106.1131
   33.390      11157.000       105.6267
   33.490      11372.000       106.6396
   33.590      11304.000       106.3203
   33.690      11292.000       106.2638
   33.790      11330.000       106.4425
   33.890      11213.000       105.8915
   33.990      11252.000       106.0754
   34.090      11273.000       106.1744
   34.190      11104.000       105.3755
   34.290      11332.000       106.4519
   34.390      11362.000       106.5927
   34.490      11388.000       106.7146
   34.590      11245.000       106.0424
   34.690      11252.000       106.0754
   34.790      11178.000       105.7261
   34.890      11181.000       105.7402
   34.990      11241.000       106.0236
   35.090      11285.000       106.2309
   35.190      11150.000       105.5936
   35.290      11443.000       106.9720
   35.390      11306.000       106.3297
   35.490      11243.000       106.0330
   35.590      11284.000       106.2262
   35.690      11318.000       106.3861
   35.790      11348.000       106.5270
   35.890      11293.000       106.2685
   35.990      11068.000       105.2046
   36.090      11156.000       105.6220
   36.190      11357.000       106.5692
   36.290      11262.000       106.1226
   36.390      11255.000       106.0896
   36.490      11222.000       105.9339
   36.590      11378.000       106.6677
   36.690      11226.000       105.9528
   36.790      11327.000       106.4284
   36.890      11139.000       105.5415
   36.990      11191.000       105.7875
   37.090      11293.000       106.2685
   37.190      11282.000       106.2168
   37.290      11370.000       106.6302
   37.390      12034.000       109.6996
   37.490      13131.000       114.5906
   37.590      15930.000       126.2141
   37.690      19988.000       141.3789
   37.790      23254.000       152.4926
   37.890      23436.000       153.0882
   37.990      20880.000       144.4991
   38.090      16716.000       129.2904
   38.190      13241.000       115.0695
   38.290      11924.000       109.1971
   38.390      11524.000       107.3499
   38.490      11256.000       106.0943
   38.590      11185.000       105.7592
   38.690      11109.000       105.3992
   38.790      11123.000       105.4656
   38.890      11251.000       106.0707
   38.990      11048.000       105.1095
   39.090      11241.000       106.0236
   39.190      10972.000       104.7473
   39.290      11240.000       106.0189
   39.390      11170.000       105.6882
   39.490      10930.000       104.5466
   39.590      11125.000       105.4751
   39.690      10951.000       104.6470
   39.790      11059.000       105.1618
   39.890      11141.000       105.5509
   39.990      10897.000       104.3887
   40.090      11074.000       105.2331
   40.190      11126.000       105.4799
   40.290      10912.000       104.4605
   40.390      11006.000       104.9095
   40.490      11143.000       105.5604
   40.590      11038.000       105.0619
   40.690      11039.000       105.0666
   40.790      11226.000       105.9528
   40.890      10958.000       104.6805
   40.990      10940.000       104.5945
   41.090      11127.000       105.4846
   41.190      11100.000       105.3565
   41.290      11100.000       105.3565
   41.390      11059.000       105.1618
   41.490      11185.000       105.7592
   41.590      11115.000       105.4277
   41.690      11141.000       105.5509
   41.790      11013.000       104.9428
   41.890      11031.000       105.0286
   41.990      11088.000       105.2996
   42.090      11261.000       106.1179
   42.190      11114.000       105.4230
   42.290      11334.000       106.4613
   42.390      11779.000       108.5311
   42.490      11614.000       107.7683
   42.590      11705.000       108.1897
   42.690      11549.000       107.4663
   42.790      11123.000       105.4656
   42.890      11197.000       105.8159
   42.990      10983.000       104.7998
   43.090      11022.000       104.9857
   43.190      10920.000       104.4988
   43.290      10821.000       104.0240
   43.390      10879.000       104.3024
   43.490      10995.000       104.8570
   43.590      10819.000       104.0144
   43.690      10982.000       104.7950
   43.790      10892.000       104.3647
   43.890      11085.000       105.2853
   43.990      10917.000       104.4845
   44.090      10761.000       103.7352
   44.190      10918.000       104.4892
   44.290      10822.000       104.0288
   44.390      10958.000       104.6805
   44.490      10844.000       104.1345
   44.590      11072.000       105.2236
   44.690      10905.000       104.4270
   44.790      10801.000       103.9279
   44.890      10841.000       104.1201
   44.990      11002.000       104.8904
   45.090      11015.000       104.9524
   45.190      10896.000       104.3839
   45.290      10909.000       104.4462
   45.390      10913.000       104.4653
   45.490      10891.000       104.3600
   45.590      10870.000       104.2593
   45.690      10905.000       104.4270
   45.790      10833.000       104.0817
   45.890      10938.000       104.5849
   45.990      10931.000       104.5514
   46.090      10860.000       104.2113
   46.190      10667.000       103.2812
   46.290      10951.000       104.6470
   46.390      10756.000       103.7111
   46.490      11210.000       105.8773
   46.590      10913.000       104.4653
   46.690      10995.000       104.8570
   46.790      11215.000       105.9009
   46.890      11319.000       106.3908
   46.990      11008.000       104.9190
   47.090      11037.000       105.0571
   47.190      10939.000       104.5897
   47.290      10882.000       104.3168
   47.390      10921.000       104.5036
   47.490      10994.000       104.8523
   47.590      10788.000       103.8653
   47.690      10807.000       103.9567
   47.790      10940.000       104.5945
   47.890      10885.000       104.3312
   47.990      10848.000       104.1537
   48.090      10861.000       104.2161
   48.190      10871.000       104.2641
   48.290      11000.000       104.8809
   48.390      11026.000       105.0048
   48.490      10789.000       103.8701
   48.590      10812.000       103.9808
   48.690      10902.000       104.4126
   48.790      10828.000       104.0577
   48.890      11209.000       105.8726
   48.990      11031.000       105.0286
   49.090      11036.000       105.0524
   49.190      11008.000       104.9190
   49.290      11000.000       104.8809
   49.390      11033.000       105.0381
   49.490      10878.000       104.2977
   49.590      11017.000       104.9619
   49.690      10918.000       104.4892
   49.790      11029.000       105.0190
   49.890      11189.000       105.7781
   49.990      11247.000       106.0519
   50.090      11038.000       105.0619
   50.190      10989.000       104.8284
   50.290      10860.000       104.2113
   50.390      11149.000       105.5888
   50.490      11081.000       105.2663
   50.590      11026.000       105.0048
   50.690      10842.000       104.1249
   50.790      10994.000       104.8523
   50.890      10884.000       104.3264
   50.990      11184.000       105.7544
   51.090      11159.000       105.6362
   51.190      11023.000       104.9905
   51.290      11112.000       105.4135
   51.390      10970.000       104.7378
   51.490      11068.000       105.2046
   51.590      10974.000       104.7569
   51.690      11116.000       105.4324
   51.790      11117.000       105.4372
   51.890      11029.000       105.0190
   51.990      10974.000       104.7569
   52.090      11010.000       104.9286
   52.190      10982.000       104.7950
   52.290      10917.000       104.4845
   52.390      11063.000       105.1808
   52.490      10935.000       104.5705
   52.590      10960.000       104.6900
   52.690      10906.000       104.4318
   52.790      11013.000       104.9428
   52.890      11043.000       105.0857
   52.990      10821.000       104.0240
   53.090      11112.000       105.4135
   53.190      11214.000       105.8962
   53.290      11320.000       106.3955
   53.390      11025.000       105.0000
   53.490      11214.000       105.8962
   53.590      11004.000       104.9000
   53.690      11104.000       105.3755
   53.790      10949.000       104.6375
   53.890      11014.000       104.9476
   53.990      11173.000       105.7024
   54.090      11252.000       106.0754
   54.190      11224.000       105.9434
   54.290      11888.000       109.0321
   54.390      12514.000       111.8660
   54.490      12916.000       113.6486
   54.590      13576.000       116.5161
   54.690      13851.000       117.6903
   54.790      13553.000       116.4174
   54.890      13352.000       115.5509
   54.990      12629.000       112.3788
   55.090      11965.000       109.3846
   55.190      11700.000       108.1665
   55.290      11323.000       106.4096
   55.390      11283.000       106.2215
   55.490      11232.000       105.9811
   55.590      11328.000       106.4331
   55.690      11195.000       105.8064
   55.790      11067.000       105.1998
   55.890      11059.000       105.1618
   55.990      11233.000       105.9858
   56.090      11312.000       106.3579
   56.190      11192.000       105.7923
   56.290      11106.000       105.3850
   56.390      11292.000       106.2638
   56.490      11129.000       105.4941
   56.590      10976.000       104.7664
   56.690      11040.000       105.0714
   56.790      11098.000       105.3470
   56.890      11164.000       105.6598
   56.990      11199.000       105.8253
   57.090      11414.000       106.8363
   57.190      11491.000       107.1961
   57.290      11752.000       108.4066
   57.390      11803.000       108.6416
   57.490      11854.000       108.8761
   57.590      11567.000       107.5500
   57.690      11323.000       106.4096
   57.790      11494.000       107.2101
   57.890      11243.000       106.0330
   57.990      11177.000       105.7213
   58.090      11387.000       106.7099
   58.190      11302.000       106.3109
   58.290      11526.000       107.3592
   58.390      11476.000       107.1261
   58.490      11686.000       108.1018
   58.590      11542.000       107.4337
   58.690      11420.000       106.8644
   58.790      11214.000       105.8962
   58.890      11356.000       106.5645
   58.990      11154.000       105.6125
   59.090      11080.000       105.2616
   59.190      11300.000       106.3015
   59.290      10970.000       104.7378
   59.390      11028.000       105.0143
   59.490      11202.000       105.8395
   59.590      11203.000       105.8442
   59.690      11126.000       105.4799
   59.790      11371.000       106.6349
   59.890      11195.000       105.8064
   59.990      11245.000       106.0424
   60.090      11169.000       105.6835
   60.190      11212.000       105.8867
   60.290      11259.000       106.1084
   60.390      11293.000       106.2685
   60.490      11319.000       106.3908
   60.590      11222.000       105.9339
   60.690      11089.000       105.3043
   60.790      11371.000       106.6349
   60.890      11270.000       106.1603
   60.990      11631.000       107.8471
   61.090      11761.000       108.4481
   61.190      11823.000       108.7336
   61.290      12267.000       110.7565
   61.390      13055.000       114.2585
   61.490      12991.000       113.9781
   61.590      13355.000       115.5638
   61.690      13411.000       115.8059
   61.790      13231.000       115.0261
   61.890      13080.000       114.3678
   61.990      12698.000       112.6854
   62.090      12519.000       111.8883
   62.190      12240.000       110.6345
   62.290      11831.000       108.7704
   62.390      11326.000       106.4237
   62.490      11517.000       107.3173
   62.590      11186.000       105.7639
   62.690      11153.000       105.6078
   62.790      11497.000       107.2241
   62.890      11118.000       105.4419
   62.990      11386.000       106.7052
   63.090      11095.000       105.3328
   63.190      11068.000       105.2046
   63.290      11254.000       106.0849
   63.390      11367.000       106.6161
   63.490      11259.000       106.1084
   63.590      11297.000       106.2873
   63.690      11304.000       106.3203
   63.790      11246.000       106.0472
   63.890      11620.000       107.7961
   63.990      11466.000       107.0794
   64.090      11658.000       107.9722
   64.190      12214.000       110.5170
   64.290      12443.000       111.5482
   64.390      13217.000       114.9652
   64.490      14676.000       121.1445
   64.590      16530.000       128.5690
   64.690      18981.000       137.7715
   64.790      21648.000       147.1326
   64.890      24166.000       155.4542
   64.990      27059.000       164.4962
   65.090      28421.000       168.5853
   65.190      28165.000       167.8243
   65.290      27444.000       165.6623
   65.390      24938.000       157.9177
   65.490      21833.000       147.7599
   65.590      19255.000       138.7624
   65.690      16410.000       128.1015
   65.790      14045.000       118.5116
   65.890      12688.000       112.6410
   65.990      12285.000       110.8377
   66.090      11896.000       109.0688
   66.190      11823.000       108.7336
   66.290      11638.000       107.8796
   66.390      11531.000       107.3825
   66.490      11535.000       107.4011
   66.590      11353.000       106.5505
   66.690      11392.000       106.7333
   66.790      11566.000       107.5453
   66.890      11839.000       108.8072
   66.990      11743.000       108.3651
   67.090      11724.000       108.2774
   67.190      12035.000       109.7041
   67.290      12829.000       113.2652
   67.390      14041.000       118.4947
   67.490      16989.000       130.3419
   67.590      21448.000       146.4514
   67.690      27955.000       167.1975
   67.790      35293.000       187.8643
   67.890      45150.000       212.4853
   67.990      58216.000       241.2799
   68.090      72633.000       269.5051
   68.190      82968.000       288.0417
   68.290      88524.000       297.5298
   68.390      93057.000       305.0525
   68.490      94790.000       307.8799
   68.590      92839.000       304.6949
   68.690      83273.000       288.5706
   68.790      70455.000       265.4336
   68.890      58876.000       242.6438
   68.990      47651.000       218.2911
   69.090      37949.000       194.8050
   69.190      27976.000       167.2603
   69.290      20757.000       144.0729
   69.390      16713.000       129.2788
   69.490      14621.000       120.9173
   69.590      13424.000       115.8620
   69.690      12487.000       111.7452
   69.790      12509.000       111.8436
   69.890      12066.000       109.8453
   69.990      11840.000       108.8118
   70.090      11789.000       108.5772
   70.190      11411.000       106.8223
   70.290      11518.000       107.3219
   70.390      11485.000       107.1681
   70.490      11336.000       106.4706
   70.590      11144.000       105.5651
   70.690      11231.000       105.9764
   70.790      11386.000       106.7052
   70.890      11459.000       107.0467
   70.990      11583.000       107.6243
   71.090      11782.000       108.5449
   71.190      11431.000       106.9159
   71.290      12145.000       110.2044
   71.390      12151.000       110.2316
   71.490      12179.000       110.3585
   71.590      12769.000       113.0000
   71.690      12695.000       112.6721
   71.790      13138.000       114.6211
   71.890      13188.000       114.8390
   71.990      13001.000       114.0219
   72.090      12919.000       113.6618
   72.190      12591.000       112.2096
   72.290      12308.000       110.9414
   72.390      12400.000       111.3553
   72.490      11863.000       108.9174
   72.590      11854.000       108.8761
   72.690      11522.000       107.3406
   72.790      11346.000       106.5176
   72.890      11159.000       105.6362
   72.990      11071.000       105.2188
   73.090      10897.000       104.3887
   73.190      10807.000       103.9567
   73.290      10651.000       103.2037
   73.390      10845.000       104.1393
   73.490      10534.000       102.6353
   73.590      10570.000       102.8105
   73.690      10484.000       102.3914
   73.790      10716.000       103.5181
   73.890      10938.000       104.5849
   73.990      11012.000       104.9381
   74.090      11151.000       105.5983
   74.190      11403.000       106.7848
   74.290      11834.000       108.7842
   74.390      12316.000       110.9775
   74.490      12606.000       112.2764
   74.590      12776.000       113.0310
   74.690      13113.000       114.5120
   74.790      13037.000       114.1797
   74.890      13033.000       114.1622
   74.990      12909.000       113.6178
   75.090      12649.000       112.4678
   75.190      12242.000       110.6436
   75.290      11636.000       107.8703
   75.390      11603.000       107.7172
   75.490      11270.000       106.1603
   75.590      11220.000       105.9245
   75.690      10839.000       104.1105
   75.790      10697.000       103.4263
   75.890      10700.000       103.4408
   75.990      10543.000       102.6791
   76.090      10571.000       102.8154
   76.190      10371.000       101.8381
   76.290      10497.000       102.4549
   76.390      10485.000       102.3963
   76.490      10506.000       102.4988
   76.590      10579.000       102.8543
   76.690      10535.000       102.6401
   76.790      10621.000       103.0582
   76.890      10657.000       103.2327
   76.990      10820.000       104.0192
   77.090      10508.000       102.5085
   77.190      10862.000       104.2209
   77.290      10766.000       103.7593
   77.390      10823.000       104.0336
   77.490      10479.000       102.3670
   77.590      10640.000       103.1504
   77.690      10532.000       102.6255
   77.790      10402.000       101.9902
   77.890      10467.000       102.3084
   77.990      10509.000       102.5134
   78.090      10419.000       102.0735
   78.190      10339.000       101.6809
   78.290      10380.000       101.8823
   78.390      10340.000       101.6858
   78.490      10419.000       102.0735
   78.590      10243.000       101.2077
   78.690      10492.000       102.4305
   78.790      10382.000       101.8921
   78.890      10575.000       102.8348
   78.990      10623.000       103.0679
   79.090      10311.000       101.5431
   79.190      10399.000       101.9755
   79.290      10564.000       102.7813
   79.390      10841.000       104.1201
   79.490      10729.000       103.5809
   79.590      10864.000       104.2305
   79.690      10898.000       104.3935
   79.790      11280.000       106.2073
   79.890      12423.000       111.4585
   79.990      13887.000       117.8431
   80.090      15893.000       126.0674
   80.190      18659.000       136.5979
   80.290      22174.000       148.9094
   80.390      26208.000       161.8889
   80.490      30146.000       173.6260
   80.590      35392.000       188.1276
   80.690      40389.000       200.9702
   80.790      44668.000       211.3481
   80.890      47789.000       218.6069
   80.990      48506.000       220.2408
   81.090      47738.000       218.4903
   81.190      44952.000       212.0189
   81.290      41324.000       203.2831
   81.390      36787.000       191.7994
   81.490      32100.000       179.1647
   81.590      27161.000       164.8060
   81.690      22611.000       150.3695
   81.790      18554.000       136.2131
   81.890      15689.000       125.2557
   81.990      13879.000       117.8092
   82.090      12542.000       111.9911
   82.190      11798.000       108.6186
   82.290      11254.000       106.0849
   82.390      10843.000       104.1297
   82.490      10771.000       103.7834
   82.590      10500.000       102.4695
   82.690      10507.000       102.5037
   82.790      10504.000       102.4890
   82.890      10440.000       102.1763
   82.990      10397.000       101.9657
   83.090      10369.000       101.8283
   83.190      10566.000       102.7911
   83.290      10694.000       103.4118
   83.390      10822.000       104.0288
   83.490      10662.000       103.2570
   83.590      10921.000       104.5036
   83.690      11201.000       105.8348
   83.790      11275.000       106.1838
   83.890      11355.000       106.5598
   83.990      11697.000       108.1527
   84.090      11582.000       107.6197
   84.190      11757.000       108.4297
   84.290      11563.000       107.5314
   84.390      11317.000       106.3814
   84.490      11274.000       106.1791
   84.590      11093.000       105.3233
   84.690      10797.000       103.9086
   84.790      10785.000       103.8509
   84.890      10561.000       102.7667
   84.990      10647.000       103.1843
   85.090      10356.000       101.7644
   85.190      10166.000       100.8266
   85.290      10199.000       100.9901
   85.390      10224.000       101.1138
   85.490      10025.000       100.1249
   85.590      10082.000       100.4092
   85.690      10204.000       101.0148
   85.790      10284.000       101.4101
   85.890      10162.000       100.8067
   85.990      10191.000       100.9505
   86.090      10060.000       100.2996
   86.190      10214.000       101.0643
   86.290      10100.000       100.4988
   86.390      10201.000       101.0000
   86.490      10179.000       100.8910
   86.590      10050.000       100.2497
   86.690      10141.000       100.7025
   86.790      10174.000       100.8662
   86.890      10610.000       103.0049
   86.990      10322.000       101.5972
   87.090      10340.000       101.6858
   87.190      10396.000       101.9608
   87.290      10532.000       102.6255
   87.390      10319.000       101.5825
   87.490      10298.000       101.4791
   87.590      10548.000       102.7035
   87.690      10483.000       102.3865
   87.790      10233.000       101.1583
   87.890      10233.000       101.1583
   87.990      10304.000       101.5086
   88.090      10218.000       101.0841
   88.190      10458.000       102.2644
   88.290      10351.000       101.7399
   88.390      10482.000       102.3816
   88.490      10639.000       103.1455
   88.590      10578.000       102.8494
   88.690      10776.000       103.8075
   88.790      11328.000       106.4331
   88.890      11490.000       107.1914
   88.990      11969.000       109.4029
   89.090      12332.000       111.0495
   89.190      12877.000       113.4769
   89.290      13342.000       115.5076
   89.390      13878.000       117.8049
   89.490      14576.000       120.7311
   89.590      14636.000       120.9793
   89.690      15058.000       122.7110
   89.790      15388.000       124.0484
   89.890      15463.000       124.3503
   89.990      15321.000       123.7780
   90.090      15399.000       124.0927
   90.190      14873.000       121.9549
   90.290      14663.000       121.0909
   90.390      14068.000       118.6086
   90.490      13610.000       116.6619
   90.590      13108.000       114.4902
   90.690      12736.000       112.8539
   90.790      12244.000       110.6526
   90.890      11634.000       107.8610
   90.990      11272.000       106.1697
   91.090      11079.000       105.2568
   91.190      10893.000       104.3695
   91.290      10634.000       103.1213
   91.390      10536.000       102.6450
   91.490      10444.000       102.1959
   91.590      10645.000       103.1746
   91.690      10639.000       103.1455
   91.790      10809.000       103.9663
   91.890      10997.000       104.8666
   91.990      11168.000       105.6788
   92.090      11537.000       107.4104
   92.190      11773.000       108.5035
   92.290      12052.000       109.7816
   92.390      12510.000       111.8481
   92.490      12778.000       113.0398
   92.590      12880.000       113.4901
   92.690      12939.000       113.7497
   92.790      13214.000       114.9522
   92.890      13065.000       114.3022
   92.990      13190.000       114.8477
   93.090      13403.000       115.7713
   93.190      13316.000       115.3950
   93.290      13083.000       114.3809
   93.390      12670.000       112.5611
   93.490      12624.000       112.3566
   93.590      12089.000       109.9500
   93.690      11821.000       108.7244
   93.790      11665.000       108.0046
   93.890      11360.000       106.5833
   93.990      11013.000       104.9428
   94.090      10705.000       103.4650
   94.190      10714.000       103.5085
   94.290      10515.000       102.5427
   94.390      10498.000       102.4597
   94.490      10256.000       101.2719
   94.590      10291.000       101.4446
   94.690      10252.000       101.2522
   94.790      10407.000       102.0147
   94.890      10392.000       101.9412
   94.990      10570.000       102.8105
   95.090      10567.000       102.7959
   95.190      10582.000       102.8689
   95.290      10628.000       103.0922
   95.390      10812.000       103.9808
   95.490      10811.000       103.9760
   95.590      10934.000       104.5658
   95.690      11060.000       105.1665
   95.790      11228.000       105.9623
   95.890      11427.000       106.8971
   95.990      11201.000       105.8348
   96.090      11502.000       107.2474
   96.190      11620.000       107.7961
   96.290      11545.000       107.4477
   96.390      11428.000       106.9018
   96.490      11370.000       106.6302
   96.590      11457.000       107.0374
   96.690      11250.000       106.0660
   96.790      10850.000       104.1633
   96.890      10759.000       103.7256
   96.990      10927.000       104.5323
   97.090      10717.000       103.5229
   97.190      10638.000       103.1407
   97.290      10497.000       102.4549
   97.390      10358.000       101.7743
   97.490       9986.000        99.9300
   97.590      10120.000       100.5982
   97.690      10165.000       100.8216
   97.790       9912.000        99.5590
   97.890      10082.000       100.4092
   97.990       9964.000        99.8198
   98.090      10066.000       100.3295
   98.190      10034.000       100.1699
   98.290      10008.000       100.0400
   98.390       9952.000        99.7597
   98.490       9918.000        99.5892
   98.590       9810.000        99.0454
   98.690      10009.000       100.0450
   98.790       9862.000        99.3076
   98.890       9972.000        99.8599
   98.990       9885.000        99.4233
   99.090       9922.000        99.6092
   99.190      10023.000       100.1149
   99.290       9909.000        99.5440
   99.390      10182.000       100.9059
   99.490       9863.000        99.3126
   99.590      10002.000       100.0100
   99.690      10114.000       100.5684
   99.790      10070.000       100.3494
   99.890       9996.000        99.9800
   99.990      10184.000       100.9158
  100.090      10029.000       100.1449
  100.190      10132.000       100.6578
  100.290       9967.000        99.8349
  100.390       9943.000        99.7146
  100.490      10045.000       100.2247
  100.590      10055.000       100.2746
  100.690       9986.000        99.9300
  100.790      10065.000       100.3245
  100.890       9929.000        99.6444
  100.990       9998.000        99.9900
  101.090       9990.000        99.9500
  101.190      10095.000       100.4739
  101.290       9882.000        99.4082
  101.390       9986.000        99.9300
  101.490       9951.000        99.7547
  101.590      10005.000       100.0250
  101.690      10027.000       100.1349
  101.790      10167.000       100.8315
  101.890      10127.000       100.6330
  101.990      10118.000       100.5883
  102.090      10015.000       100.0750
  102.190       9897.000        99.4837
  102.290       9934.000        99.6695
  102.390       9962.000        99.8098
  102.490      10023.000       100.1149
  102.590       9869.000        99.3428
  102.690       9881.000        99.4032
  102.790      10079.000       100.3942
  102.890       9962.000        99.8098
  102.990       9957.000        99.7848
  103.090       9973.000        99.8649
  103.190       9905.000        99.5239
  103.290      10110.000       100.5485
  103.390      10201.000       101.0000
  103.490      10500.000       102.4695
  103.590      10304.000       101.5086
  103.690      10681.000       103.3489
  103.790      10858.000       104.2017
  103.890      10912.000       104.4605
  103.990      10797.000       103.9086
  104.090      11175.000       105.7119
  104.190      11451.000       107.0093
  104.290      11586.000       107.6383
  104.390      12037.000       109.7133
  104.490      12265.000       110.7475
  104.590      12597.000       112.2364
  104.690      13133.000       114.5993
  104.790      13336.000       115.4816
  104.890      13291.000       115.2866
  104.990      13606.000       116.6448
  105.090      13819.000       117.5542
  105.190      13955.000       118.1313
  105.290      13873.000       117.7837
  105.390      13895.000       117.8771
  105.490      13508.000       116.2239
  105.590      13367.000       115.6157
  105.690      13113.000       114.5120
  105.790      13257.000       115.1390
  105.890      12819.000       113.2210
  105.990      12330.000       111.0405
  106.090      12028.000       109.6722
  106.190      11666.000       108.0093
  106.290      11336.000       106.4706
  106.390      11292.000       106.2638
  106.490      11001.000       104.8857
  106.590      10967.000       104.7234
  106.690      10713.000       103.5036
  106.790      10583.000       102.8737
  106.890      10319.000       101.5825
  106.990      10264.000       101.3114
  107.090      10098.000       100.4888
  107.190      10364.000       101.8037
  107.290       9962.000        99.8098
  107.390       9905.000        99.5239
  107.490      10104.000       100.5187
  107.590      10071.000       100.3544
  107.690      10038.000       100.1898
  107.790      10098.000       100.4888
  107.890      10039.000       100.1948
  107.990      10029.000       100.1449
  108.090      10170.000       100.8464
  108.190       9994.000        99.9700
  108.290      10207.000       101.0297
  108.390      10154.000       100.7671
  108.490       9955.000        99.7747
  108.590      10078.000       100.3892
  108.690      10178.000       100.8861
  108.790      10017.000       100.0850
  108.890      10349.000       101.7300
  108.990      10105.000       100.5236
  109.090      10150.000       100.7472
  109.190       9966.000        99.8299
  109.290       9993.000        99.9650
  109.390      10017.000       100.0850
  109.490      10069.000       100.3444
  109.590      10179.000       100.8910
  109.690      10083.000       100.4141
  109.790       9977.000        99.8849
  109.890      10049.000       100.2447
  109.990      10088.000       100.4390
  110.090      10015.000       100.0750
  110.190      10070.000       100.3494
  110.290      10130.000       100.6479
  110.390      10222.000       101.1039
  110.490      10296.000       101.4692
  110.590      10434.000       102.1469
  110.690      10251.000       101.2472
  110.790      10338.000       101.6760
  110.890      10413.000       102.0441
  110.990      10741.000       103.6388
  111.090      10662.000       103.2570
  111.190      10623.000       103.0679
  111.290      10619.000       103.0485
  111.390      10898.000       104.3935
  111.490      11015.000       104.9524
  111.590      11056.000       105.1475
  111.690      11043.000       105.0857
  111.790      11133.000       105.5130
  111.890      11058.000       105.1570
  111.990      10902.000       104.4126
  112.090      10849.000       104.1585
  112.190      10835.000       104.0913
  112.290      10827.000       104.0529
  112.390      10694.000       103.4118
  112.490      10829.000       104.0625
  112.590      10694.000       103.4118
  112.690      10652.000       103.2085
  112.790      10496.000       102.4500
  112.890      10557.000       102.7473
  112.990      10754.000       103.7015
  113.090      10812.000       103.9808
  113.190      10487.000       102.4061
  113.290      10673.000       103.3102
  113.390      10760.000       103.7304
  113.490      10690.000       103.3925
  113.590      10715.000       103.5133
  113.690      10678.000       103.3344
  113.790      11028.000       105.0143
  113.890      10931.000       104.5514
  113.990      11094.000       105.3281
  114.090      11007.000       104.9143
  114.190      11416.000       106.8457
  114.290      11724.000       108.2774
  114.390      11777.000       108.5219
  114.490      11781.000       108.5403
  114.590      12057.000       109.8044
  114.690      12099.000       109.9955
  114.790      12197.000       110.4400
  114.890      12426.000       111.4720
  114.990      12527.000       111.9241
  115.090      12611.000       112.2987
  115.190      12612.000       112.3032
  115.290      12673.000       112.5744
  115.390      12769.000       113.0000
  115.490      12470.000       111.6692
  115.590      12394.000       111.3283
  115.690      12244.000       110.6526
  115.790      12045.000       109.7497
  115.890      11765.000       108.4666
  115.990      11870.000       108.9495
  116.090      11429.000       106.9065
  116.190      11048.000       105.1095
  116.290      11012.000       104.9381
  116.390      10910.000       104.4509
  116.490      11019.000       104.9714
  116.590      10597.000       102.9417
  116.690      10550.000       102.7132
  116.790      10382.000       101.8921
  116.890      10291.000       101.4446
  116.990      10158.000       100.7869
  117.090       9931.000        99.6544
  117.190      10017.000       100.0850
  117.290      10043.000       100.2148
  117.390      10083.000       100.4141
  117.490      10069.000       100.3444
  117.590       9956.000        99.7798
  117.690       9947.000        99.7346
  117.790       9943.000        99.7146
  117.890       9837.000        99.1816
  117.990       9950.000        99.7497
  118.090       9882.000        99.4082
  118.190       9915.000        99.5741
  118.290       9726.000        98.6205
  118.390       9804.000        99.0152
  118.490       9859.000        99.2925
  118.590       9780.000        98.8939
  118.690       9910.000        99.5490
  118.790       9823.000        99.1110
  118.890      10073.000       100.3643
  118.990       9992.000        99.9600
  119.090       9811.000        99.0505
  119.190       9777.000        98.8787
  119.290      10060.000       100.2996
  119.390       9956.000        99.7798
  119.490      10026.000       100.1299
  119.590       9751.000        98.7472
  119.690       9715.000        98.5647
  119.790       9962.000        99.8098
  119.890      10026.000       100.1299
  119.990       9901.000        99.5038
  120.090       9927.000        99.6343
  120.190      10003.000       100.0150
  120.290       9877.000        99.3831
  120.390      10010.000       100.0500
  120.490       9907.000        99.5339
  120.590      10044.000       100.2198
  120.690      10197.000       100.9802
  120.790      10071.000       100.3544
  120.890      10310.000       101.5382
  120.990      10322.000       101.5972
  121.090      10035.000       100.1749
  121.190      10173.000       100.8613
  121.290      10090.000       100.4490
  121.390      10207.000       101.0297
  121.490      10540.000       102.6645
  121.590      10152.000       100.7571
  121.690      10445.000       102.2008
  121.790      10387.000       101.9166
  121.890      10421.000       102.0833
  121.990      10546.000       102.6937
  122.090      10426.000       102.1078
  122.190      10405.000       102.0049
  122.290      10542.000       102.6742
  122.390      10464.000       102.2937
  122.490      10316.000       101.5677
  122.590      10445.000       102.2008
  122.690      10285.000       101.4150
  122.790      10466.000       102.3035
  122.890      10328.000       101.6268
  122.990      10248.000       101.2324
  123.090      10299.000       101.4840
  123.190      10089.000       100.4440
  123.290      10109.000       100.5435
  123.390      10097.000       100.4838
  123.490      10068.000       100.3394
  123.590      10024.000       100.1199
  123.690      10050.000       100.2497
  123.790      10132.000       100.6578
  123.890      10164.000       100.8167
  123.990       9858.000        99.2875
  124.090      10021.000       100.1049
  124.190      10016.000       100.0800
  124.290      10060.000       100.2996
  124.390      10169.000       100.8415
  124.490      10044.000       100.2198
  124.590      10066.000       100.3295
  124.690      10232.000       101.1534
  124.790      10085.000       100.4241
  124.890      10195.000       100.9703
  124.990      10174.000       100.8662
  125.090      10183.000       100.9109
  125.190      10181.000       100.9009
  125.290      10168.000       100.8365
  125.390      10398.000       101.9706
  125.490      10317.000       101.5726
  125.590      10327.000       101.6218
  125.690      10200.000       100.9950
  125.790      10254.000       101.2620
  125.890      10113.000       100.5634
  125.990      10157.000       100.7819
  126.090      10060.000       100.2996
  126.190      10008.000       100.0400
  126.290      10089.000       100.4440
  126.390       9962.000        99.8098
  126.490       9917.000        99.5841
  126.590      10014.000       100.0700
  126.690      10072.000       100.3594
  126.790       9969.000        99.8449
  126.890       9684.000        98.4073
  126.990       9869.000        99.3428
  127.090       9825.000        99.1211
  127.190       9848.000        99.2371
  127.290       9512.000        97.5295
  127.390       9852.000        99.2572
  127.490       9639.000        98.1784
  127.590       9718.000        98.5799
  127.690       9615.000        98.0561
  127.790       9543.000        97.6883
  127.890       9678.000        98.3768
  127.990       9422.000        97.0670
  128.090       9645.000        98.2090
  128.190       9485.000        97.3910
  128.290       9729.000        98.6357
  128.390       9575.000        97.8519
  128.490       9675.000        98.3616
  128.590          2.000         1.4142
  128.690          4.000         2.0000
