# XYDATA igartucuel Sr2ScSbO6 @RT 2theta 
# INTER        1       1       0     0.100000
# TEMP       175.000      175.000      175.000
# d2b Date 13-Sep-08 Time 20:09:20 Run 051461 /d2b.cal 51452>51461
# d2b Date 13-Sep-08 Time 20:09:20 Run 051461 /d2b.cal 51452>51461
# Monitor/counts, Counting time/sec:        300000.00       300000.00
   0.0000             0.000       0.000
   0.0500             0.000       0.000
   0.1000            13.388      14.589
   0.1500            31.791      16.877
   0.2000            41.488      11.189
   0.2500            38.854      13.470
   0.3000            43.804      10.969
   0.3500            50.814      11.966
   0.4000            42.014       8.845
   0.4500            43.108       9.833
   0.5000            36.857       8.062
   0.5500            40.206       9.989
   0.6000            40.435       7.679
   0.6500            43.515       8.817
   0.7000            48.990       8.173
   0.7500            49.499       8.873
   0.8000            47.888       7.858
   0.8500            48.998       8.113
   0.9000            54.938       8.113
   0.9500            56.979       8.610
   1.0000            48.249       7.151
   1.0500            48.035       7.696
   1.1000            46.947       7.019
   1.1500            53.689       7.913
   1.2000            50.931       7.297
   1.2500            48.491       7.314
   1.3000            44.589       6.628
   1.3500            48.414       6.018
   1.4000            51.480       6.579
   1.4500            44.873       5.807
   1.5000            45.136       6.006
   1.5500            51.164       5.669
   1.6000            51.287       6.121
   1.6500            49.008       5.859
   1.7000            50.561       6.220
   1.7500            49.587       5.586
   1.8000            53.106       6.145
   1.8500            46.836       5.037
   1.9000            49.110       5.666
   1.9500            49.550       5.235
   2.0000            46.315       5.433
   2.0500            44.297       5.183
   2.1000            48.764       5.818
   2.1500            50.548       5.287
   2.2000            52.873       5.733
   2.2500            53.482       5.580
   2.3000            48.470       5.608
   2.3500            53.176       5.306
   2.4000            50.023       5.545
   2.4500            50.468       5.248
   2.5000            51.358       5.529
   2.5500            57.636       5.807
   2.6000            56.428       5.751
   2.6500            50.533       4.905
   2.7000            50.183       4.708
   2.7500            54.386       4.943
   2.8000            48.333       4.818
   2.8500            53.175       4.993
   2.9000            53.171       4.764
   2.9500            56.747       4.954
   3.0000            53.603       4.731
   3.0500            52.798       4.768
   3.1000            49.702       4.552
   3.1500            53.265       4.803
   3.2000            57.646       4.720
   3.2500            56.627       4.881
   3.3000            55.121       4.841
   3.3500            47.671       4.479
   3.4000            52.459       4.740
   3.4500            54.174       4.762
   3.5000            59.609       5.028
   3.5500            55.909       4.887
   3.6000            57.685       4.656
   3.6500            58.259       4.759
   3.7000            56.442       4.541
   3.7500            58.777       4.793
   3.8000            56.118       4.468
   3.8500            53.247       4.460
   3.9000            59.065       4.858
   3.9500            59.754       4.983
   4.0000            59.424       4.361
   4.0500            57.675       4.163
   4.1000            53.958       4.162
   4.1500            55.951       4.150
   4.2000            55.160       4.029
   4.2500            57.373       4.113
   4.3000            56.006       4.260
   4.3500            55.303       4.136
   4.4000            57.664       4.264
   4.4500            64.461       4.276
   4.5000            64.494       4.452
   4.5500            60.026       4.101
   4.6000            60.883       4.088
   4.6500            61.794       4.010
   4.7000            61.810       4.159
   4.7500            61.860       4.106
   4.8000            63.080       4.161
   4.8500            62.460       4.026
   4.9000            63.874       4.204
   4.9500            67.074       4.171
   5.0000            64.078       4.331
   5.0500            65.540       4.127
   5.1000            65.537       4.157
   5.1500            65.970       3.992
   5.2000            71.883       4.318
   5.2500            68.693       4.296
   5.3000            73.570       4.489
   5.3500            72.887       4.378
   5.4000            75.531       4.434
   5.4500            81.361       4.688
   5.5000            80.294       4.447
   5.5500            81.209       4.026
   5.6000            77.848       3.890
   5.6500            85.335       4.125
   5.7000            87.621       4.179
   5.7500            88.399       4.198
   5.8000            91.786       4.253
   5.8500            93.591       4.385
   5.9000            95.453       4.199
   5.9500            99.970       4.403
   6.0000           103.038       4.258
   6.0500           107.204       4.402
   6.1000           113.494       4.480
   6.1500           115.212       4.514
   6.2000           119.621       4.539
   6.2500           115.901       4.589
   6.3000           126.627       4.581
   6.3500           131.859       4.774
   6.4000           132.684       4.468
   6.4500           144.551       4.865
   6.5000           148.198       4.826
   6.5500           159.626       4.949
   6.6000           157.916       4.843
   6.6500           162.992       5.062
   6.7000           169.907       4.996
   6.7500           169.303       4.817
   6.8000           176.350       4.816
   6.8500           184.120       4.903
   6.9000           189.583       4.849
   6.9500           201.154       5.011
   7.0000           204.506       5.004
   7.0500           218.245       5.148
   7.1000           225.262       5.201
   7.1500           220.987       5.102
   7.2000           226.039       5.195
   7.2500           238.277       5.282
   7.3000           240.480       5.324
   7.3500           246.231       5.363
   7.4000           251.081       5.405
   7.4500           250.047       5.376
   7.5000           265.562       5.567
   7.5500           264.358       5.604
   7.6000           273.155       5.640
   7.6500           272.994       5.607
   7.7000           281.055       5.724
   7.7500           282.247       5.737
   7.8000           283.993       5.799
   7.8500           293.388       5.879
   7.9000           295.365       5.789
   7.9500           309.086       6.007
   8.0000           316.741       6.041
   8.0500           312.095       6.021
   8.1000           312.787       6.034
   8.1500           313.523       5.977
   8.2000           310.687       5.987
   8.2500           309.026       6.042
   8.3000           321.098       6.092
   8.3500           328.511       6.150
   8.4000           328.222       6.144
   8.4500           323.718       6.120
   8.5000           333.141       6.197
   8.5500           337.779       6.217
   8.6000           347.451       6.380
   8.6500           343.791       6.250
   8.7000           357.192       6.436
   8.7500           356.751       6.419
   8.8000           345.508       6.335
   8.8500           354.674       6.467
   8.9000           353.013       6.401
   8.9500           355.667       6.419
   9.0000           363.146       6.479
   9.0500           361.770       6.385
   9.1000           369.298       6.533
   9.1500           363.283       6.434
   9.2000           360.192       6.415
   9.2500           366.027       6.452
   9.3000           362.215       6.446
   9.3500           360.232       6.429
   9.4000           362.006       6.434
   9.4500           357.656       6.406
   9.5000           362.950       6.406
   9.5500           359.737       6.350
   9.6000           357.924       6.356
   9.6500           358.871       6.369
   9.7000           360.811       6.347
   9.7500           352.002       6.325
   9.8000           353.182       6.264
   9.8500           360.744       6.373
   9.9000           352.141       6.250
   9.9500           349.267       6.302
  10.0000           349.820       6.308
  10.0500           340.118       6.188
  10.1000           344.180       6.192
  10.1500           343.087       6.212
  10.2000           347.415       6.210
  10.2500           348.163       6.227
  10.3000           348.998       6.169
  10.3500           345.247       6.269
  10.4000           341.515       6.087
  10.4500           347.816       6.173
  10.5000           342.093       6.112
  10.5500           342.031       6.204
  10.6000           335.516       6.045
  10.6500           334.370       6.064
  10.7000           331.049       6.060
  10.7500           332.485       6.098
  10.8000           332.106       6.048
  10.8500           335.961       6.053
  10.9000           332.107       6.005
  10.9500           333.563       6.039
  11.0000           335.604       6.045
  11.0500           326.016       6.016
  11.1000           328.746       5.976
  11.1500           316.880       5.911
  11.2000           310.654       5.818
  11.2500           321.637       5.922
  11.3000           324.161       5.964
  11.3500           321.155       5.887
  11.4000           312.323       5.858
  11.4500           317.602       5.884
  11.5000           319.751       5.918
  11.5500           319.027       5.882
  11.6000           322.950       5.884
  11.6500           322.242       5.923
  11.7000           317.409       5.872
  11.7500           322.804       5.991
  11.8000           316.041       5.854
  11.8500           324.378       5.899
  11.9000           319.845       5.940
  11.9500           319.572       5.916
  12.0000           317.137       5.900
  12.0500           313.569       5.862
  12.1000           317.915       5.820
  12.1500           319.107       5.939
  12.2000           313.428       5.783
  12.2500           306.110       5.691
  12.3000           310.878       5.765
  12.3500           314.861       5.810
  12.4000           312.708       5.787
  12.4500           319.737       5.810
  12.5000           313.456       5.771
  12.5500           301.156       5.696
  12.6000           301.211       5.772
  12.6500           304.277       5.815
  12.7000           304.715       5.730
  12.7500           307.368       5.783
  12.8000           302.641       5.816
  12.8500           289.304       5.646
  12.9000           307.894       5.759
  12.9500           303.038       5.761
  13.0000           307.852       5.773
  13.0500           304.869       5.710
  13.1000           295.403       5.618
  13.1500           292.692       5.616
  13.2000           296.223       5.643
  13.2500           291.629       5.569
  13.3000           304.796       5.687
  13.3500           301.805       5.692
  13.4000           296.442       5.616
  13.4500           300.687       5.661
  13.5000           307.887       5.733
  13.5500           304.251       5.686
  13.6000           291.144       5.570
  13.6500           295.195       5.628
  13.7000           296.983       5.666
  13.7500           297.340       5.805
  13.8000           293.705       5.698
  13.8500           284.044       5.685
  13.9000           290.508       5.592
  13.9500           295.742       5.588
  14.0000           285.296       5.585
  14.0500           288.259       5.650
  14.1000           295.238       5.796
  14.1500           296.294       5.632
  14.2000           287.070       5.527
  14.2500           280.956       5.474
  14.3000           287.900       5.496
  14.3500           286.049       5.564
  14.4000           298.485       5.635
  14.4500           296.162       5.584
  14.5000           286.375       5.558
  14.5500           281.606       5.576
  14.6000           287.670       5.638
  14.6500           288.031       5.611
  14.7000           293.209       5.620
  14.7500           288.001       5.533
  14.8000           301.047       5.594
  14.8500           292.688       5.519
  14.9000           288.876       5.548
  14.9500           288.916       5.531
  15.0000           287.099       5.517
  15.0500           290.331       5.517
  15.1000           296.557       5.572
  15.1500           303.663       5.634
  15.2000           301.724       5.671
  15.2500           292.785       5.565
  15.3000           299.056       5.593
  15.3500           288.864       5.533
  15.4000           282.733       5.468
  15.4500           287.056       5.544
  15.5000           281.675       5.490
  15.5500           285.682       5.575
  15.6000           280.531       5.431
  15.6500           282.649       5.504
  15.7000           281.473       5.493
  15.7500           283.567       5.419
  15.8000           287.004       5.473
  15.8500           284.153       5.494
  15.9000           289.575       5.511
  15.9500           281.007       5.420
  16.0000           286.955       5.491
  16.0500           279.615       5.508
  16.1000           287.602       5.510
  16.1500           279.752       5.474
  16.2000           268.222       5.495
  16.2500           279.081       5.449
  16.3000           277.496       5.409
  16.3500           281.741       5.458
  16.4000           287.067       5.521
  16.4500           276.119       5.462
  16.5000           281.534       5.472
  16.5500           278.129       5.411
  16.6000           277.437       5.404
  16.6500           278.485       5.398
  16.7000           272.552       5.354
  16.7500           277.903       5.387
  16.8000           273.111       5.342
  16.8500           270.810       5.331
  16.9000           273.090       5.331
  16.9500           263.785       5.251
  17.0000           269.234       5.297
  17.0500           274.522       5.372
  17.1000           272.024       5.301
  17.1500           264.483       5.242
  17.2000           263.382       5.233
  17.2500           268.334       5.309
  17.3000           274.195       5.340
  17.3500           271.166       5.338
  17.4000           266.783       5.302
  17.4500           264.970       5.227
  17.5000           268.758       5.345
  17.5500           267.697       5.282
  17.6000           267.541       5.286
  17.6500           274.587       5.338
  17.7000           268.932       5.331
  17.7500           271.949       5.349
  17.8000           271.682       5.288
  17.8500           277.105       5.324
  17.9000           270.156       5.264
  17.9500           265.574       5.270
  18.0000           267.870       5.257
  18.0500           263.713       5.250
  18.1000           264.800       5.270
  18.1500           269.816       5.293
  18.2000           265.871       5.240
  18.2500           267.678       5.293
  18.3000           267.276       5.263
  18.3500           268.221       5.359
  18.4000           270.012       5.285
  18.4500           265.450       5.209
  18.5000           272.699       5.404
  18.5500           274.000       5.378
  18.6000           270.088       5.324
  18.6500           269.299       5.311
  18.7000           282.864       5.392
  18.7500           273.519       5.354
  18.8000           276.853       5.410
  18.8500           277.776       5.427
  18.9000           268.487       5.337
  18.9500           276.774       5.424
  19.0000           278.516       5.400
  19.0500           280.573       5.468
  19.1000           286.106       5.466
  19.1500           279.845       5.428
  19.2000           290.806       5.503
  19.2500           304.600       5.640
  19.3000           298.411       5.574
  19.3500           294.345       5.571
  19.4000           305.364       5.617
  19.4500           320.012       5.767
  19.5000           323.128       5.788
  19.5500           347.311       5.960
  19.6000           354.295       6.041
  19.6500           375.484       6.254
  19.7000           387.545       6.505
  19.7500           396.694       6.387
  19.8000           424.073       6.573
  19.8500           423.729       6.565
  19.9000           412.817       6.488
  19.9500           403.034       6.446
  20.0000           388.966       6.322
  20.0500           377.177       6.242
  20.1000           353.567       6.087
  20.1500           342.371       5.963
  20.2000           322.191       5.838
  20.2500           303.796       5.735
  20.3000           305.468       5.676
  20.3500           285.010       5.419
  20.4000           284.775       5.406
  20.4500           274.577       5.334
  20.5000           271.578       5.358
  20.5500           266.290       5.416
  20.6000           267.395       5.269
  20.6500           259.381       5.353
  20.7000           260.415       5.270
  20.7500           260.415       5.344
  20.8000           256.098       5.242
  20.8500           263.698       5.248
  20.9000           254.912       5.142
  20.9500           253.162       5.145
  21.0000           267.343       5.280
  21.0500           264.273       5.251
  21.1000           260.686       5.202
  21.1500           261.358       5.188
  21.2000           266.223       5.253
  21.2500           264.546       5.230
  21.3000           260.962       5.215
  21.3500           262.906       5.256
  21.4000           274.692       5.375
  21.4500           263.036       5.258
  21.5000           267.092       5.269
  21.5500           264.252       5.209
  21.6000           269.551       5.302
  21.6500           278.683       5.365
  21.7000           272.278       5.291
  21.7500           275.199       5.299
  21.8000           276.969       5.437
  21.8500           284.046       5.405
  21.9000           283.718       5.400
  21.9500           296.001       5.509
  22.0000           297.542       5.542
  22.0500           310.749       5.702
  22.1000           315.934       5.677
  22.1500           326.380       5.763
  22.2000           339.448       5.965
  22.2500           353.909       6.017
  22.3000           372.728       6.183
  22.3500           396.358       6.350
  22.4000           424.244       6.596
  22.4500           455.360       6.817
  22.5000           501.538       7.140
  22.5500           558.667       7.531
  22.6000           622.115       7.945
  22.6500           719.226       8.538
  22.7000           819.318       9.110
  22.7500           924.945       9.674
  22.8000          1038.041      10.245
  22.8500          1130.427      10.693
  22.9000          1193.276      10.986
  22.9500          1227.388      11.138
  23.0000          1195.212      10.995
  23.0500          1144.011      10.757
  23.1000          1061.428      10.364
  23.1500           961.973       9.868
  23.2000           844.972       9.256
  23.2500           735.793       8.636
  23.3000           633.837       8.039
  23.3500           547.663       7.476
  23.4000           479.033       7.021
  23.4500           428.162       6.624
  23.5000           389.962       6.307
  23.5500           355.296       6.026
  23.6000           323.149       5.780
  23.6500           303.652       5.607
  23.7000           288.887       5.487
  23.7500           271.455       5.303
  23.8000           259.922       5.157
  23.8500           252.711       5.112
  23.9000           247.644       5.070
  23.9500           244.345       5.048
  24.0000           245.833       5.190
  24.0500           242.353       5.057
  24.1000           244.509       5.030
  24.1500           248.854       5.079
  24.2000           256.762       5.136
  24.2500           252.702       5.201
  24.3000           250.342       5.092
  24.3500           253.720       5.180
  24.4000           246.284       5.104
  24.4500           246.740       5.072
  24.5000           243.103       5.032
  24.5500           239.598       4.974
  24.6000           245.562       5.001
  24.6500           248.203       5.093
  24.7000           250.011       5.079
  24.7500           249.106       5.053
  24.8000           246.597       5.092
  24.8500           248.398       5.161
  24.9000           255.771       5.179
  24.9500           248.666       5.040
  25.0000           244.029       5.014
  25.0500           244.793       5.094
  25.1000           242.908       5.063
  25.1500           238.532       5.000
  25.2000           253.856       5.161
  25.2500           241.786       5.099
  25.3000           235.723       5.131
  25.3500           240.847       5.055
  25.4000           249.445       5.106
  25.4500           245.219       5.143
  25.5000           254.837       5.101
  25.5500           247.796       5.030
  25.6000           249.466       5.131
  25.6500           244.591       5.164
  25.7000           245.328       5.123
  25.7500           250.257       5.106
  25.8000           249.673       5.115
  25.8500           238.997       5.137
  25.9000           242.756       5.101
  25.9500           240.743       4.985
  26.0000           245.063       5.060
  26.0500           254.985       5.114
  26.1000           236.495       4.930
  26.1500           236.589       4.972
  26.2000           240.503       5.035
  26.2500           247.381       5.059
  26.3000           245.477       5.043
  26.3500           242.834       5.000
  26.4000           239.738       4.984
  26.4500           241.106       4.974
  26.5000           242.127       4.987
  26.5500           252.078       5.105
  26.6000           240.380       4.976
  26.6500           240.720       4.939
  26.7000           236.770       5.020
  26.7500           232.387       4.905
  26.8000           237.418       4.997
  26.8500           239.555       5.034
  26.9000           229.856       4.972
  26.9500           235.662       4.956
  27.0000           244.366       5.006
  27.0500           237.465       4.963
  27.1000           233.266       4.976
  27.1500           230.000       4.905
  27.2000           237.354       4.919
  27.2500           238.034       4.973
  27.3000           238.348       4.968
  27.3500           233.933       4.932
  27.4000           236.195       5.004
  27.4500           235.194       4.985
  27.5000           236.516       4.984
  27.5500           238.027       4.921
  27.6000           234.887       4.993
  27.6500           235.114       4.953
  27.7000           237.049       5.078
  27.7500           239.191       5.110
  27.8000           232.588       5.024
  27.8500           236.708       5.010
  27.9000           236.236       4.966
  27.9500           235.368       5.172
  28.0000           245.067       5.068
  28.0500           248.558       5.096
  28.1000           244.470       5.106
  28.1500           244.930       5.127
  28.2000           239.889       5.021
  28.2500           246.064       5.093
  28.3000           245.300       5.038
  28.3500           243.646       5.012
  28.4000           242.864       5.045
  28.4500           247.989       5.186
  28.5000           240.432       5.064
  28.5500           243.229       5.101
  28.6000           240.286       5.115
  28.6500           233.815       5.013
  28.7000           232.254       4.927
  28.7500           231.367       4.996
  28.8000           231.705       5.049
  28.8500           238.166       5.059
  28.9000           233.183       5.115
  28.9500           232.708       4.944
  29.0000           232.457       4.919
  29.0500           229.807       5.010
  29.1000           235.598       5.107
  29.1500           235.208       4.952
  29.2000           231.018       4.958
  29.2500           236.657       5.001
  29.3000           239.869       5.050
  29.3500           235.957       4.971
  29.4000           235.715       4.934
  29.4500           233.524       5.076
  29.5000           237.061       4.944
  29.5500           238.006       5.018
  29.6000           238.084       5.060
  29.6500           241.982       5.026
  29.7000           236.410       4.973
  29.7500           237.342       4.978
  29.8000           244.366       4.991
  29.8500           249.250       5.079
  29.9000           241.515       5.025
  29.9500           245.438       5.145
  30.0000           246.305       5.122
  30.0500           243.114       5.088
  30.1000           237.650       4.980
  30.1500           237.977       5.050
  30.2000           242.311       5.080
  30.2500           239.501       4.954
  30.3000           240.660       4.972
  30.3500           242.139       5.085
  30.4000           240.179       4.994
  30.4500           241.953       5.016
  30.5000           233.980       5.019
  30.5500           242.317       5.049
  30.6000           247.081       5.030
  30.6500           240.206       5.000
  30.7000           241.504       5.017
  30.7500           242.338       5.014
  30.8000           236.886       5.009
  30.8500           239.780       5.152
  30.9000           234.117       4.911
  30.9500           241.479       4.984
  31.0000           241.415       5.081
  31.0500           233.963       5.009
  31.1000           240.846       5.044
  31.1500           258.708       5.183
  31.2000           251.206       5.121
  31.2500           250.138       5.138
  31.3000           259.270       5.240
  31.3500           261.889       5.214
  31.4000           262.001       5.177
  31.4500           262.791       5.164
  31.5000           265.544       5.254
  31.5500           265.387       5.266
  31.6000           277.223       5.340
  31.6500           275.514       5.386
  31.7000           278.111       5.345
  31.7500           278.101       5.400
  31.8000           283.172       5.376
  31.8500           288.843       5.481
  31.9000           305.143       5.566
  31.9500           324.387       5.781
  32.0000           345.254       5.945
  32.0500           387.760       6.268
  32.1000           427.953       6.569
  32.1500           506.015       7.146
  32.2000           587.795       7.698
  32.2500           712.907       8.504
  32.3000           869.830       9.369
  32.3500          1054.981      10.303
  32.4000          1311.727      11.487
  32.4500          1603.199      12.695
  32.5000          1878.208      13.742
  32.5500          2159.308      14.735
  32.6000          2378.510      15.466
  32.6500          2466.651      15.751
  32.7000          2471.349      15.766
  32.7500          2364.647      15.422
  32.8000          2148.852      14.701
  32.8500          1841.845      13.609
  32.9000          1551.878      12.491
  32.9500          1249.734      11.213
  33.0000          1001.003      10.043
  33.0500           780.834       8.868
  33.1000           636.653       8.004
  33.1500           518.264       7.248
  33.2000           425.133       6.615
  33.2500           366.088       6.105
  33.3000           317.296       5.675
  33.3500           286.258       5.440
  33.4000           272.607       5.278
  33.4500           256.451       5.117
  33.5000           239.877       4.983
  33.5500           237.029       4.972
  33.6000           242.038       4.985
  33.6500           229.984       4.883
  33.7000           232.223       4.955
  33.7500           228.150       4.956
  33.8000           233.719       5.037
  33.8500           242.074       4.977
  33.9000           228.360       4.834
  33.9500           232.138       4.879
  34.0000           239.066       4.975
  34.0500           233.287       4.962
  34.1000           232.047       4.982
  34.1500           236.191       4.991
  34.2000           236.766       5.001
  34.2500           237.759       4.971
  34.3000           240.640       4.984
  34.3500           238.220       4.976
  34.4000           233.095       4.945
  34.4500           226.415       4.870
  34.5000           232.867       4.916
  34.5500           229.668       4.996
  34.6000           231.679       4.982
  34.6500           238.892       4.989
  34.7000           232.792       4.959
  34.7500           227.251       4.961
  34.8000           225.226       4.853
  34.8500           231.739       4.912
  34.9000           227.962       4.913
  34.9500           230.123       4.931
  35.0000           226.123       4.882
  35.0500           217.455       4.835
  35.1000           234.870       4.994
  35.1500           237.842       4.972
  35.2000           229.440       4.940
  35.2500           228.057       4.939
  35.3000           225.471       4.993
  35.3500           227.953       4.909
  35.4000           229.513       4.878
  35.4500           226.859       4.946
  35.5000           233.876       4.909
  35.5500           231.699       4.910
  35.6000           233.881       5.000
  35.6500           229.699       4.870
  35.7000           233.119       4.953
  35.7500           230.558       4.975
  35.8000           232.186       4.893
  35.8500           233.117       4.943
  35.9000           231.692       4.926
  35.9500           234.308       4.965
  36.0000           238.530       4.959
  36.0500           230.755       4.954
  36.1000           233.545       4.960
  36.1500           235.046       4.916
  36.2000           241.101       4.935
  36.2500           253.720       5.118
  36.3000           261.737       5.251
  36.3500           266.688       5.276
  36.4000           286.830       5.398
  36.4500           307.401       5.588
  36.5000           301.938       5.512
  36.5500           312.264       5.631
  36.6000           322.894       5.734
  36.6500           309.212       5.598
  36.7000           306.337       5.549
  36.7500           299.747       5.494
  36.8000           289.149       5.397
  36.8500           271.964       5.272
  36.9000           267.796       5.231
  36.9500           257.766       5.182
  37.0000           247.693       5.105
  37.0500           240.793       4.977
  37.1000           231.746       4.926
  37.1500           236.395       5.020
  37.2000           238.692       4.974
  37.2500           239.800       5.029
  37.3000           237.705       4.985
  37.3500           243.617       5.037
  37.4000           247.680       5.132
  37.4500           238.006       4.991
  37.5000           243.283       5.057
  37.5500           242.554       5.034
  37.6000           251.140       5.104
  37.6500           246.068       4.974
  37.7000           250.350       5.057
  37.7500           253.118       5.151
  37.8000           256.706       5.168
  37.8500           274.591       5.289
  37.9000           296.299       5.484
  37.9500           318.267       5.721
  38.0000           324.672       5.786
  38.0500           369.570       6.141
  38.1000           427.108       6.619
  38.1500           505.348       7.113
  38.2000           615.949       7.849
  38.2500           719.646       8.571
  38.3000           866.556       9.295
  38.3500           989.648      10.070
  38.4000          1115.769      10.561
  38.4500          1209.581      10.974
  38.5000          1251.733      11.197
  38.5500          1206.160      10.986
  38.6000          1129.645      10.636
  38.6500          1020.307      10.122
  38.7000           880.831       9.410
  38.7500           741.167       8.703
  38.8000           621.352       7.967
  38.8500           522.081       7.272
  38.9000           439.098       6.638
  38.9500           382.911       6.250
  39.0000           341.195       5.894
  39.0500           327.275       5.835
  39.1000           310.189       5.595
  39.1500           298.120       5.501
  39.2000           277.931       5.325
  39.2500           271.905       5.329
  39.3000           282.233       5.358
  39.3500           281.923       5.322
  39.4000           273.639       5.271
  39.4500           273.875       5.343
  39.5000           278.817       5.298
  39.5500           292.295       5.470
  39.6000           294.806       5.465
  39.6500           313.733       5.678
  39.7000           351.548       5.979
  39.7500           405.093       6.434
  39.8000           478.194       6.947
  39.8500           562.926       7.636
  39.9000           714.970       8.496
  39.9500           908.432       9.480
  40.0000          1155.464      10.676
  40.0500          1457.146      12.014
  40.1000          1796.478      13.357
  40.1500          2098.566      14.448
  40.2000          2359.792      15.337
  40.2500          2492.231      16.010
  40.3000          2535.867      15.898
  40.3500          2377.256      15.359
  40.4000          2126.546      14.588
  40.4500          1795.588      13.770
  40.5000          1497.129      12.330
  40.5500          1205.655      11.002
  40.6000           921.999       9.717
  40.6500           719.464       8.540
  40.7000           562.773       7.519
  40.7500           448.084       6.858
  40.8000           376.189       6.199
  40.8500           321.755       5.715
  40.9000           291.376       5.422
  40.9500           270.533       5.231
  41.0000           249.931       5.104
  41.0500           241.950       5.006
  41.1000           232.176       4.926
  41.1500           233.836       4.957
  41.2000           238.350       4.992
  41.2500           229.540       4.866
  41.3000           227.331       4.890
  41.3500           232.531       4.898
  41.4000           238.865       4.986
  41.4500           244.475       4.985
  41.5000           237.177       4.920
  41.5500           239.959       4.961
  41.6000           240.873       4.996
  41.6500           244.100       5.007
  41.7000           241.353       4.968
  41.7500           241.193       5.007
  41.8000           245.357       5.084
  41.8500           250.857       5.109
  41.9000           245.141       5.041
  41.9500           241.724       4.986
  42.0000           247.927       5.090
  42.0500           255.297       5.155
  42.1000           248.637       5.076
  42.1500           252.135       5.054
  42.2000           245.995       5.078
  42.2500           241.484       5.125
  42.3000           236.195       4.979
  42.3500           233.405       4.869
  42.4000           239.620       4.916
  42.4500           240.984       4.977
  42.5000           238.575       5.019
  42.5500           243.653       5.083
  42.6000           249.483       5.068
  42.6500           253.328       5.060
  42.7000           238.640       4.928
  42.7500           231.525       4.844
  42.8000           242.200       4.945
  42.8500           239.931       5.030
  42.9000           242.842       4.974
  42.9500           239.640       5.151
  43.0000           231.198       4.925
  43.0500           247.738       5.221
  43.1000           239.951       5.081
  43.1500           241.613       4.995
  43.2000           252.350       5.090
  43.2500           264.077       5.229
  43.3000           270.947       5.341
  43.3500           280.769       5.320
  43.4000           301.666       5.659
  43.4500           317.388       5.708
  43.5000           335.069       5.819
  43.5500           356.060       5.934
  43.6000           370.932       6.089
  43.6500           381.265       6.238
  43.7000           376.138       6.237
  43.7500           354.663       6.117
  43.8000           328.457       5.721
  43.8500           325.311       5.805
  43.9000           302.188       5.589
  43.9500           280.373       5.316
  44.0000           261.283       5.199
  44.0500           250.952       5.183
  44.1000           249.638       5.061
  44.1500           249.913       5.078
  44.2000           243.179       5.071
  44.2500           242.026       5.032
  44.3000           241.318       4.984
  44.3500           248.444       5.159
  44.4000           245.557       4.965
  44.4500           247.139       5.008
  44.5000           240.708       5.032
  44.5500           239.465       4.999
  44.6000           243.610       5.028
  44.6500           252.382       5.240
  44.7000           252.739       5.134
  44.7500           254.365       5.129
  44.8000           251.438       5.066
  44.8500           246.829       4.994
  44.9000           243.028       5.091
  44.9500           250.504       5.077
  45.0000           249.937       5.062
  45.0500           242.918       5.031
  45.1000           244.176       5.015
  45.1500           238.005       4.939
  45.2000           245.083       5.055
  45.2500           250.885       5.059
  45.3000           258.231       5.162
  45.3500           264.900       5.234
  45.4000           272.718       5.407
  45.4500           288.092       5.562
  45.5000           295.040       5.446
  45.5500           298.369       5.456
  45.6000           312.328       5.627
  45.6500           325.305       5.732
  45.7000           323.076       5.767
  45.7500           328.269       5.835
  45.8000           326.379       5.800
  45.8500           334.126       5.892
  45.9000           325.534       5.749
  45.9500           328.688       5.692
  46.0000           331.787       5.925
  46.0500           341.868       5.974
  46.1000           342.682       5.892
  46.1500           375.485       6.166
  46.2000           411.319       6.453
  46.2500           480.409       6.911
  46.3000           583.443       7.661
  46.3500           757.742       8.718
  46.4000          1034.130      10.083
  46.4500          1423.662      11.867
  46.5000          1964.419      13.947
  46.5500          2721.605      16.609
  46.6000          3653.469      19.526
  46.6500          4633.546      21.470
  46.7000          5606.446      23.953
  46.7500          6435.937      25.676
  46.8000          6998.293      26.300
  46.8500          7015.930      26.825
  46.9000          6631.285      25.697
  46.9500          5859.795      24.428
  47.0000          4882.043      22.289
  47.0500          3912.663      19.718
  47.1000          2978.022      17.335
  47.1500          2199.175      14.947
  47.2000          1601.397      12.651
  47.2500          1157.936      10.751
  47.3000           834.029       9.205
  47.3500           626.545       7.899
  47.4000           489.307       7.070
  47.4500           398.689       6.360
  47.5000           343.815       5.937
  47.5500           296.963       5.580
  47.6000           273.754       5.413
  47.6500           260.543       5.163
  47.7000           258.937       5.327
  47.7500           246.945       5.125
  47.8000           236.684       4.998
  47.8500           245.358       5.073
  47.9000           250.751       5.036
  47.9500           242.841       4.982
  48.0000           240.775       5.060
  48.0500           250.283       5.055
  48.1000           250.705       5.085
  48.1500           253.345       5.123
  48.2000           254.300       5.130
  48.2500           262.393       5.276
  48.3000           268.658       5.301
  48.3500           272.518       5.236
  48.4000           269.089       5.260
  48.4500           267.031       5.260
  48.5000           260.324       5.125
  48.5500           253.038       5.053
  48.6000           243.940       5.047
  48.6500           252.055       5.035
  48.7000           245.148       4.968
  48.7500           241.275       5.001
  48.8000           243.581       5.032
  48.8500           243.921       5.012
  48.9000           239.010       5.045
  48.9500           241.154       4.978
  49.0000           233.064       4.963
  49.0500           238.460       5.079
  49.1000           231.865       4.956
  49.1500           227.214       4.879
  49.2000           225.080       4.941
  49.2500           231.480       4.873
  49.3000           231.373       4.936
  49.3500           233.481       5.038
  49.4000           231.472       4.926
  49.4500           225.751       4.922
  49.5000           225.786       4.874
  49.5500           227.843       4.860
  49.6000           229.275       4.854
  49.6500           232.197       4.928
  49.7000           238.109       4.944
  49.7500           235.078       4.985
  49.8000           232.944       4.909
  49.8500           232.444       4.927
  49.9000           232.054       4.997
  49.9500           233.635       4.928
  50.0000           241.278       5.087
  50.0500           231.306       4.935
  50.1000           228.624       5.048
  50.1500           228.947       5.064
  50.2000           239.323       5.097
  50.2500           239.036       5.061
  50.3000           244.859       5.036
  50.3500           237.894       4.918
  50.4000           240.512       4.962
  50.4500           239.359       4.955
  50.5000           232.766       4.949
  50.5500           241.518       4.927
  50.6000           235.821       4.994
  50.6500           241.115       5.035
  50.7000           252.450       5.119
  50.7500           258.477       5.139
  50.8000           264.883       5.187
  50.8500           301.463       5.592
  50.9000           340.157       5.944
  50.9500           389.542       6.246
  51.0000           455.744       6.725
  51.0500           561.777       7.477
  51.1000           674.786       8.216
  51.1500           778.002       8.812
  51.2000           874.511       9.503
  51.2500           966.149       9.819
  51.3000          1012.108      10.040
  51.3500           986.750      10.100
  51.4000           914.619       9.571
  51.4500           801.519       9.087
  51.5000           693.665       8.360
  51.5500           600.773       7.729
  51.6000           491.418       7.059
  51.6500           406.137       6.380
  51.7000           358.384       6.082
  51.7500           316.480       5.640
  51.8000           293.102       5.420
  51.8500           277.989       5.362
  51.9000           264.036       5.165
  51.9500           252.823       5.097
  52.0000           240.051       5.024
  52.0500           239.669       4.955
  52.1000           248.938       5.186
  52.1500           258.951       5.238
  52.2000           263.332       5.246
  52.2500           278.081       5.384
  52.3000           310.702       5.668
  52.3500           363.626       6.032
  52.4000           443.292       6.724
  52.4500           545.963       7.527
  52.5000           694.304       8.398
  52.5500           865.907       9.330
  52.6000          1060.286      10.324
  52.6500          1237.731      11.401
  52.7000          1369.082      11.880
  52.7500          1462.726      11.994
  52.8000          1453.674      12.203
  52.8500          1349.319      11.770
  52.9000          1184.907      10.990
  52.9500           990.340       9.989
  53.0000           803.301       8.886
  53.0500           628.489       7.886
  53.1000           496.858       7.013
  53.1500           404.453       6.340
  53.2000           342.751       5.844
  53.2500           298.816       5.474
  53.3000           266.056       5.195
  53.3500           246.590       5.181
  53.4000           235.447       5.014
  53.4500           230.747       4.956
  53.5000           224.692       4.819
  53.5500           221.617       5.057
  53.6000           228.201       4.914
  53.6500           226.399       4.868
  53.7000           224.899       4.835
  53.7500           226.358       4.793
  53.8000           231.594       4.846
  53.8500           223.962       4.772
  53.9000           241.312       4.934
  53.9500           243.209       4.954
  54.0000           249.267       5.027
  54.0500           254.935       5.070
  54.1000           267.927       5.194
  54.1500           276.042       5.293
  54.2000           270.528       5.167
  54.2500           265.923       5.218
  54.3000           258.265       5.160
  54.3500           266.535       5.227
  54.4000           271.918       5.287
  54.4500           277.650       5.376
  54.5000           282.689       5.345
  54.5500           295.542       5.489
  54.6000           304.076       5.485
  54.6500           300.141       5.440
  54.7000           293.737       5.472
  54.7500           285.033       5.377
  54.8000           264.367       5.137
  54.8500           256.727       5.067
  54.9000           253.768       5.064
  54.9500           236.235       4.905
  55.0000           227.429       4.843
  55.0500           221.142       4.803
  55.1000           220.857       4.785
  55.1500           220.534       4.708
  55.2000           223.636       4.802
  55.2500           216.460       4.710
  55.3000           220.789       4.764
  55.3500           218.395       4.719
  55.4000           212.831       4.683
  55.4500           216.370       4.660
  55.5000           216.432       4.675
  55.5500           220.590       4.706
  55.6000           222.956       4.745
  55.6500           218.490       4.728
  55.7000           222.466       4.745
  55.7500           215.218       4.700
  55.8000           217.363       4.710
  55.8500           218.117       4.776
  55.9000           221.194       4.733
  55.9500           221.333       4.735
  56.0000           220.661       4.777
  56.0500           213.399       4.752
  56.1000           213.971       4.702
  56.1500           219.188       4.696
  56.2000           224.956       4.764
  56.2500           224.064       4.795
  56.3000           215.661       4.648
  56.3500           222.401       4.755
  56.4000           218.088       4.719
  56.4500           221.366       4.730
  56.5000           224.174       4.776
  56.5500           225.366       4.844
  56.6000           223.489       4.862
  56.6500           224.431       4.802
  56.7000           226.541       4.789
  56.7500           220.326       4.762
  56.8000           230.621       4.954
  56.8500           225.516       4.817
  56.9000           227.394       4.801
  56.9500           241.750       4.934
  57.0000           241.133       5.043
  57.0500           247.453       4.991
  57.1000           249.825       5.007
  57.1500           253.741       5.048
  57.2000           252.087       5.051
  57.2500           250.212       5.016
  57.3000           258.550       5.128
  57.3500           253.208       5.105
  57.4000           258.520       5.115
  57.4500           255.268       5.185
  57.5000           256.106       5.110
  57.5500           267.161       5.233
  57.6000           275.439       5.280
  57.6500           281.549       5.356
  57.7000           317.163       5.650
  57.7500           369.904       6.092
  57.8000           446.555       6.699
  57.8500           597.514       7.761
  57.9000           797.150       8.938
  57.9500          1093.250      10.453
  58.0000          1474.868      12.145
  58.0500          1945.096      13.951
  58.1000          2390.374      15.473
  58.1500          2800.035      16.747
  58.2000          3099.658      17.626
  58.2500          3164.811      17.812
  58.3000          3045.961      17.473
  58.3500          2720.680      16.508
  58.4000          2295.546      15.162
  58.4500          1840.867      13.573
  58.5000          1430.575      11.964
  58.5500          1062.181      10.305
  58.6000           772.250       8.786
  58.6500           596.790       7.727
  58.7000           462.530       6.804
  58.7500           377.710       6.150
  58.8000           321.795       5.691
  58.8500           298.438       5.486
  58.9000           267.214       5.195
  58.9500           247.741       5.026
  59.0000           242.509       4.947
  59.0500           235.099       4.910
  59.1000           234.857       4.881
  59.1500           231.803       4.864
  59.2000           225.893       4.833
  59.2500           225.233       4.822
  59.3000           224.384       4.805
  59.3500           226.786       4.781
  59.4000           225.385       4.757
  59.4500           227.425       4.799
  59.5000           236.117       4.919
  59.5500           230.650       4.875
  59.6000           225.508       4.787
  59.6500           234.960       4.877
  59.7000           233.613       4.892
  59.7500           231.006       4.882
  59.8000           235.070       4.936
  59.8500           240.109       5.024
  59.9000           228.459       4.819
  59.9500           231.966       4.862
  60.0000           227.622       4.845
  60.0500           236.188       4.903
  60.1000           244.495       4.960
  60.1500           237.595       4.891
  60.2000           229.757       4.866
  60.2500           226.129       4.858
  60.3000           228.457       4.878
  60.3500           237.824       4.948
  60.4000           232.095       4.872
  60.4500           231.187       4.858
  60.5000           238.300       4.980
  60.5500           260.340       5.144
  60.6000           260.926       5.175
  60.6500           269.147       5.223
  60.7000           288.965       5.408
  60.7500           297.814       5.476
  60.8000           313.334       5.664
  60.8500           324.518       5.725
  60.9000           316.607       5.665
  60.9500           315.757       5.645
  61.0000           300.188       5.518
  61.0500           289.908       5.508
  61.1000           273.072       5.264
  61.1500           259.371       5.108
  61.2000           251.968       5.042
  61.2500           250.596       5.084
  61.3000           241.641       4.944
  61.3500           244.886       4.987
  61.4000           237.787       4.955
  61.4500           239.082       4.945
  61.5000           231.168       4.899
  61.5500           228.043       4.818
  61.6000           244.919       4.977
  61.6500           244.629       5.012
  61.7000           250.489       5.079
  61.7500           262.914       5.175
  61.8000           293.708       5.434
  61.8500           327.989       5.772
  61.9000           368.495       6.110
  61.9500           428.103       6.575
  62.0000           502.962       7.105
  62.0500           568.777       7.555
  62.1000           620.469       7.884
  62.1500           644.644       8.041
  62.2000           655.446       8.121
  62.2500           618.807       7.873
  62.3000           560.164       7.490
  62.3500           496.880       7.059
  62.4000           424.049       6.554
  62.4500           364.495       6.074
  62.5000           327.676       5.744
  62.5500           287.605       5.375
  62.6000           265.284       5.211
  62.6500           256.597       5.152
  62.7000           251.232       5.081
  62.7500           239.995       4.924
  62.8000           243.074       4.971
  62.8500           235.824       4.918
  62.9000           236.547       4.895
  62.9500           233.760       4.873
  63.0000           224.393       4.838
  63.0500           227.318       4.835
  63.1000           231.446       4.825
  63.1500           237.863       4.920
  63.2000           245.223       4.983
  63.2500           241.848       4.926
  63.3000           253.084       5.052
  63.3500           239.669       4.944
  63.4000           247.499       5.008
  63.4500           251.228       5.104
  63.5000           241.127       4.954
  63.5500           238.790       4.944
  63.6000           249.354       5.032
  63.6500           248.591       5.013
  63.7000           235.698       4.910
  63.7500           235.221       4.886
  63.8000           232.544       4.892
  63.8500           234.017       4.900
  63.9000           233.873       4.931
  63.9500           235.554       4.901
  64.0000           239.643       4.959
  64.0500           241.049       4.933
  64.1000           238.879       4.900
  64.1500           236.221       4.922
  64.2000           242.846       4.953
  64.2500           237.208       4.966
  64.3000           230.984       4.920
  64.3500           234.198       4.930
  64.4000           239.956       4.952
  64.4500           247.123       5.137
  64.5000           252.120       5.073
  64.5500           255.579       5.141
  64.6000           247.514       5.157
  64.6500           250.528       5.156
  64.7000           256.295       5.173
  64.7500           254.843       5.108
  64.8000           257.601       5.130
  64.8500           259.971       5.138
  64.9000           270.565       5.209
  64.9500           269.683       5.233
  65.0000           279.719       5.308
  65.0500           278.747       5.408
  65.1000           261.295       5.169
  65.1500           269.931       5.231
  65.2000           266.048       5.306
  65.2500           255.515       5.112
  65.3000           252.310       5.176
  65.3500           253.114       5.126
  65.4000           246.290       5.068
  65.4500           249.743       5.035
  65.5000           241.449       4.989
  65.5500           236.601       4.935
  65.6000           253.410       5.057
  65.6500           258.885       5.120
  65.7000           262.939       5.242
  65.7500           269.984       5.282
  65.8000           285.333       5.415
  65.8500           294.660       5.504
  65.9000           294.126       5.535
  65.9500           306.863       5.586
  66.0000           297.921       5.530
  66.0500           283.987       5.418
  66.1000           275.704       5.330
  66.1500           272.345       5.243
  66.2000           269.285       5.239
  66.2500           256.853       5.133
  66.3000           255.308       5.166
  66.3500           242.570       5.114
  66.4000           258.055       5.115
  66.4500           258.363       5.181
  66.5000           256.331       5.181
  66.5500           255.136       5.108
  66.6000           260.500       5.162
  66.6500           269.015       5.239
  66.7000           269.902       5.224
  66.7500           273.843       5.325
  66.8000           267.533       5.291
  66.8500           273.153       5.276
  66.9000           279.641       5.296
  66.9500           273.560       5.267
  67.0000           283.172       5.342
  67.0500           284.375       5.381
  67.1000           296.618       5.471
  67.1500           301.555       5.508
  67.2000           304.835       5.525
  67.2500           307.011       5.566
  67.3000           316.623       5.671
  67.3500           319.650       5.720
  67.4000           328.824       5.745
  67.4500           342.323       5.855
  67.5000           342.423       5.861
  67.5500           352.451       5.941
  67.6000           352.585       5.958
  67.6500           347.666       5.996
  67.7000           353.716       6.028
  67.7500           368.724       6.093
  67.8000           398.989       6.355
  67.8500           464.165       6.859
  67.9000           575.781       7.615
  67.9500           782.910       8.841
  68.0000          1101.919      10.489
  68.0500          1596.613      12.620
  68.1000          2290.071      15.123
  68.1500          3201.383      17.883
  68.2000          4333.475      20.813
  68.2500          5493.819      23.450
  68.3000          6525.929      25.565
  68.3500          7305.450      27.054
  68.4000          7565.237      27.535
  68.4500          7157.775      26.779
  68.5000          6232.861      24.979
  68.5500          5041.292      22.455
  68.6000          3828.135      19.559
  68.6500          2785.917      16.677
  68.7000          1948.816      13.946
  68.7500          1415.193      11.887
  68.8000          1014.655      10.064
  68.8500           761.230       8.724
  68.9000           607.145       7.794
  68.9500           504.440       7.102
  69.0000           424.535       6.539
  69.0500           376.664       6.174
  69.1000           330.037       5.804
  69.1500           312.811       5.624
  69.2000           299.167       5.480
  69.2500           273.835       5.237
  69.3000           265.900       5.170
  69.3500           262.035       5.133
  69.4000           263.412       5.177
  69.4500           262.448       5.148
  69.5000           267.680       5.203
  69.5500           271.606       5.246
  69.6000           271.620       5.244
  69.6500           278.548       5.289
  69.7000           270.901       5.264
  69.7500           270.895       5.229
  69.8000           268.775       5.240
  69.8500           265.136       5.203
  69.9000           270.667       5.242
  69.9500           262.257       5.159
  70.0000           250.769       5.065
  70.0500           253.681       5.101
  70.1000           258.028       5.117
  70.1500           255.005       5.086
  70.2000           247.674       5.079
  70.2500           245.893       5.017
  70.3000           252.708       5.078
  70.3500           262.812       5.146
  70.4000           271.603       5.272
  70.4500           281.162       5.375
  70.5000           304.003       5.594
  70.5500           322.453       5.811
  70.6000           337.843       5.837
  70.6500           362.105       6.045
  70.7000           372.760       6.110
  70.7500           372.635       6.131
  70.8000           366.498       6.078
  70.8500           357.415       6.011
  70.9000           343.232       5.921
  70.9500           329.871       5.791
  71.0000           315.665       5.627
  71.0500           302.615       5.560
  71.1000           290.507       5.453
  71.1500           280.993       5.347
  71.2000           273.178       5.264
  71.2500           269.407       5.296
  71.3000           264.823       5.163
  71.3500           273.253       5.263
  71.4000           279.347       5.360
  71.4500           292.767       5.422
  71.5000           310.162       5.582
  71.5500           347.372       5.951
  71.6000           410.455       6.432
  71.6500           509.994       7.143
  71.7000           648.775       8.055
  71.7500           834.049       9.131
  71.8000          1051.651      10.258
  71.8500          1266.233      11.260
  71.9000          1474.057      12.150
  71.9500          1635.272      12.798
  72.0000          1694.411      13.029
  72.0500          1624.551      12.756
  72.1000          1429.091      11.962
  72.1500          1208.688      10.998
  72.2000           969.033       9.845
  72.2500           764.575       8.744
  72.3000           600.507       7.752
  72.3500           481.715       6.945
  72.4000           416.656       6.470
  72.4500           359.552       6.016
  72.5000           324.958       5.753
  72.5500           311.531       5.594
  72.6000           298.546       5.480
  72.6500           294.658       5.466
  72.7000           310.197       5.576
  72.7500           347.797       5.931
  72.8000           407.833       6.404
  72.8500           485.800       6.989
  72.9000           585.499       7.654
  72.9500           725.122       8.518
  73.0000           852.883       9.240
  73.0500           976.167       9.889
  73.1000          1073.046      10.369
  73.1500          1126.861      10.625
  73.2000          1092.665      10.461
  73.2500          1037.711      10.195
  73.3000           916.994       9.580
  73.3500           762.553       8.734
  73.4000           628.061       7.928
  73.4500           511.389       7.152
  73.5000           423.765       6.511
  73.5500           366.438       6.055
  73.6000           315.491       5.619
  73.6500           284.560       5.391
  73.7000           276.098       5.296
  73.7500           261.438       5.188
  73.8000           247.158       5.028
  73.8500           249.032       4.993
  73.9000           251.922       5.032
  73.9500           248.323       5.020
  74.0000           252.052       5.031
  74.0500           252.188       5.063
  74.1000           249.972       5.082
  74.1500           240.266       4.966
  74.2000           245.379       5.072
  74.2500           251.643       5.127
  74.3000           250.346       5.057
  74.3500           249.938       5.077
  74.4000           242.838       4.960
  74.4500           235.899       4.969
  74.5000           237.666       5.023
  74.5500           249.697       5.109
  74.6000           245.858       5.062
  74.6500           250.016       5.007
  74.7000           253.611       5.050
  74.7500           248.173       5.024
  74.8000           248.234       5.023
  74.8500           250.378       5.042
  74.9000           251.245       5.015
  74.9500           256.163       5.081
  75.0000           253.770       5.040
  75.0500           254.820       5.077
  75.1000           271.682       5.231
  75.1500           279.239       5.316
  75.2000           301.214       5.491
  75.2500           334.719       5.789
  75.3000           370.272       6.089
  75.3500           404.158       6.360
  75.4000           427.731       6.579
  75.4500           432.098       6.595
  75.5000           426.872       6.540
  75.5500           416.594       6.478
  75.6000           389.816       6.262
  75.6500           370.030       6.086
  75.7000           339.170       5.826
  75.7500           320.580       5.676
  75.8000           294.005       5.459
  75.8500           274.435       5.321
  75.9000           256.530       5.133
  75.9500           249.865       5.039
  76.0000           253.853       5.078
  76.0500           252.291       5.062
  76.1000           249.020       5.019
  76.1500           250.147       5.095
  76.2000           244.500       4.974
  76.2500           242.104       4.937
  76.3000           246.806       4.979
  76.3500           243.241       4.944
  76.4000           245.183       4.980
  76.4500           242.041       4.935
  76.5000           244.541       5.011
  76.5500           239.071       4.919
  76.6000           240.163       4.916
  76.6500           242.400       4.974
  76.7000           256.973       5.075
  76.7500           254.502       5.051
  76.8000           251.736       5.058
  76.8500           261.972       5.126
  76.9000           258.241       5.084
  76.9500           247.275       4.982
  77.0000           256.420       5.075
  77.0500           249.210       5.064
  77.1000           253.696       5.050
  77.1500           261.374       5.114
  77.2000           263.888       5.151
  77.2500           266.587       5.169
  77.3000           276.923       5.268
  77.3500           297.865       5.480
  77.4000           324.302       5.700
  77.4500           383.363       6.198
  77.5000           470.891       6.877
  77.5500           608.501       7.799
  77.6000           796.379       8.922
  77.6500          1025.161      10.126
  77.7000          1273.715      11.291
  77.7500          1493.509      12.228
  77.8000          1637.207      12.806
  77.8500          1679.326      12.971
  77.9000          1611.472      12.706
  77.9500          1464.008      12.105
  78.0000          1242.097      11.148
  78.0500          1001.877      10.011
  78.1000           793.542       8.910
  78.1500           631.383       7.945
  78.2000           508.444       7.132
  78.2500           428.620       6.548
  78.3000           365.371       6.047
  78.3500           327.287       5.735
  78.4000           307.055       5.559
  78.4500           287.856       5.368
  78.5000           272.532       5.231
  78.5500           264.256       5.162
  78.6000           262.796       5.181
  78.6500           266.125       5.215
  78.7000           259.848       5.155
  78.7500           260.094       5.138
  78.8000           260.756       5.109
  78.8500           271.845       5.221
  78.9000           270.532       5.245
  78.9500           272.846       5.292
  79.0000           277.914       5.300
  79.0500           282.808       5.328
  79.1000           281.294       5.317
  79.1500           268.988       5.210
  79.2000           265.367       5.164
  79.2500           273.022       5.235
  79.3000           267.049       5.217
  79.3500           261.844       5.165
  79.4000           257.620       5.091
  79.4500           254.349       5.045
  79.5000           258.760       5.145
  79.5500           263.984       5.170
  79.6000           250.356       5.028
  79.6500           247.156       4.988
  79.7000           255.679       5.083
  79.7500           247.663       5.011
  79.8000           252.473       5.037
  79.8500           258.345       5.096
  79.9000           268.470       5.352
  79.9500           269.509       5.226
  80.0000           279.050       5.327
  80.0500           300.924       5.522
  80.1000           314.410       5.618
  80.1500           320.369       5.660
  80.2000           309.687       5.566
  80.2500           301.900       5.515
  80.3000           294.183       5.432
  80.3500           295.430       5.438
  80.4000           293.569       5.421
  80.4500           283.181       5.329
  80.5000           286.202       5.399
  80.5500           284.660       5.340
  80.6000           278.106       5.326
  80.6500           279.076       5.385
  80.7000           275.300       5.290
  80.7500           286.158       5.478
  80.8000           297.144       5.559
  80.8500           318.185       5.651
  80.9000           353.415       5.950
  80.9500           414.659       6.441
  81.0000           505.268       7.110
  81.0500           619.877       7.872
  81.1000           772.268       8.793
  81.1500           913.447       9.562
  81.2000          1041.243      10.211
  81.2500          1087.246      10.437
  81.3000          1058.578      10.296
  81.3500           974.267       9.878
  81.4000           871.486       9.342
  81.4500           726.725       8.528
  81.5000           594.101       7.735
  81.5500           490.254       7.008
  81.6000           416.143       6.453
  81.6500           368.480       6.078
  81.7000           332.924       5.772
  81.7500           309.574       5.589
  81.8000           303.056       5.561
  81.8500           301.927       5.510
  81.9000           307.491       5.548
  81.9500           321.403       5.671
  82.0000           352.887       5.944
  82.0500           412.261       6.421
  82.1000           517.711       7.197
  82.1500           645.377       8.034
  82.2000           853.651       9.239
  82.2500          1040.674      10.207
  82.3000          1233.404      11.112
  82.3500          1390.539      11.802
  82.4000          1516.472      12.325
  82.4500          1526.475      12.366
  82.5000          1435.238      11.988
  82.5500          1262.471      11.243
  82.6000          1056.021       9.967
  82.6500           850.130       9.072
  82.7000           672.585       8.201
  82.7500           534.476       7.310
  82.8000           441.014       6.642
  82.8500           379.185       6.179
  82.9000           341.781       6.054
  82.9500           307.421       5.485
  83.0000           294.959       5.383
  83.0500           279.202       5.285
  83.1000           272.559       5.230
  83.1500           269.840       5.203
  83.2000           272.228       5.228
  83.2500           281.704       5.314
  83.3000           296.082       5.468
  83.3500           313.284       5.817
  83.4000           332.738       5.682
  83.4500           358.380       5.913
  83.5000           376.235       6.145
  83.5500           380.591       6.172
  83.6000           376.004       6.137
  83.6500           361.008       6.012
  83.7000           346.845       6.121
  83.7500           323.516       5.603
  83.8000           296.983       5.391
  83.8500           281.830       5.518
  83.9000           274.428       5.161
  83.9500           271.565       5.358
  84.0000           267.471       5.250
  84.0500           257.190       4.901
  84.1000           257.165       5.022
  84.1500           249.158       5.204
  84.2000           254.119       4.947
  84.2500           249.773       5.160
  84.3000           254.143       5.140
  84.3500           255.816       4.888
  84.4000           249.134       4.935
  84.4500           254.251       5.254
  84.5000           259.841       5.004
  84.5500           247.804       5.134
  84.6000           255.799       5.150
  84.6500           264.941       5.172
  84.7000           263.741       4.959
  84.7500           278.127       5.270
  84.8000           276.490       5.280
  84.8500           282.163       5.328
  84.9000           273.138       5.243
  84.9500           267.182       5.173
  85.0000           272.243       5.220
  85.0500           262.595       5.181
  85.1000           259.174       5.124
  85.1500           258.521       5.111
  85.2000           260.702       5.116
  85.2500           259.618       5.327
  85.3000           261.725       4.988
  85.3500           264.055       5.311
  85.4000           265.598       5.025
  85.4500           267.779       5.127
  85.5000           260.859       5.120
  85.5500           259.405       5.102
  85.6000           262.504       5.161
  85.6500           266.023       5.171
  85.7000           265.456       5.224
  85.7500           267.166       5.440
  85.8000           275.330       5.108
  85.8500           270.491       5.166
  85.9000           279.740       5.300
  85.9500           276.945       5.508
  86.0000           282.525       5.178
  86.0500           283.098       5.531
  86.1000           285.700       5.420
  86.1500           284.757       5.167
  86.2000           295.013       5.397
  86.2500           289.785       5.411
  86.3000           300.243       5.486
  86.3500           314.792       5.626
  86.4000           344.111       5.879
  86.4500           367.524       6.066
  86.5000           432.762       6.578
  86.5500           555.847       7.456
  86.6000           747.142       8.641
  86.6500          1019.161      10.556
  86.7000          1366.570      11.321
  86.7500          1817.056      13.399
  86.8000          2241.065      14.986
  86.8500          2668.340      16.350
  86.9000          2968.834      17.245
  86.9500          3186.799      18.717
  87.0000          3199.764      17.287
  87.0500          2969.060      17.150
  87.1000          2565.481      16.029
  87.1500          2062.307      14.369
  87.2000          1569.233      12.532
  87.2500          1143.991      10.696
  87.3000           849.858       9.221
  87.3500           649.681       8.061
  87.4000           527.798       7.267
  87.4500           431.488       6.583
  87.5000           382.969       6.192
  87.5500           348.576       5.908
  87.6000           329.958       5.748
  87.6500           317.512       5.639
  87.7000           294.822       5.461
  87.7500           296.991       5.452
  87.8000           305.097       5.528
  87.8500           305.302       5.546
  87.9000           307.738       5.558
  87.9500           323.834       5.697
  88.0000           326.010       5.717
  88.0500           326.535       5.719
  88.1000           335.514       5.796
  88.1500           319.494       5.656
  88.2000           315.589       5.635
  88.2500           307.233       5.552
  88.3000           288.985       5.384
  88.3500           288.879       5.380
  88.4000           283.441       5.596
  88.4500           281.267       5.106
  88.5000           269.053       5.218
  88.5500           271.844       5.239
  88.6000           269.387       5.214
  88.6500           272.437       5.266
  88.7000           262.584       5.190
  88.7500           270.971       5.256
  88.8000           283.828       5.336
  88.8500           293.593       5.717
  88.9000           322.918       5.466
  88.9500           359.300       5.988
  89.0000           397.883       6.324
  89.0500           425.650       6.530
  89.1000           457.837       6.773
  89.1500           465.176       7.182
  89.2000           454.784       6.461
  89.2500           444.253       7.009
  89.3000           418.323       6.255
  89.3500           392.516       6.264
  89.4000           351.698       5.945
  89.4500           321.747       5.699
  89.5000           312.544       5.632
  89.5500           299.685       5.507
  89.6000           290.563       5.405
  89.6500           295.076       5.468
  89.7000           298.980       5.766
  89.7500           287.608       5.178
  89.8000           312.189       5.598
  89.8500           313.585       5.606
  89.9000           349.252       5.973
  89.9500           404.748       6.713
  90.0000           453.178       6.438
  90.0500           557.167       7.875
  90.1000           669.627       8.189
  90.1500           774.803       8.406
  90.2000           890.785       9.453
  90.2500           973.640      10.400
  90.3000          1005.540       9.595
  90.3500          1028.493      10.161
  90.4000          1019.666      10.645
  90.4500           966.463       9.831
  90.5000           883.826       8.993
  90.5500           750.736       9.121
  90.6000           643.175       7.676
  90.6500           518.721       7.579
  90.7000           448.858       6.405
  90.7500           376.358       6.144
  90.8000           335.342       5.839
  90.8500           318.301       5.934
  90.9000           303.971       5.307
  90.9500           301.221       5.511
  91.0000           277.419       5.285
  91.0500           283.284       5.381
  91.1000           280.401       5.329
  91.1500           297.300       5.470
  91.2000           304.045       5.568
  91.2500           338.107       5.834
  91.3000           379.622       6.170
  91.3500           418.516       6.488
  91.4000           460.747       6.793
  91.4500           503.228       7.100
  91.5000           503.561       7.106
  91.5500           493.745       7.046
  91.6000           455.612       6.786
  91.6500           413.075       6.755
  91.7000           371.814       5.861
  91.7500           333.994       5.805
  91.8000           305.958       5.537
  91.8500           295.977       5.459
  91.9000           282.837       5.364
  91.9500           268.764       5.427
  92.0000           266.930       5.059
  92.0500           262.659       5.439
  92.1000           264.587       5.133
  92.1500           261.681       5.008
  92.2000           261.033       5.369
  92.2500           266.813       5.145
  92.3000           273.155       5.020
  92.3500           275.975       5.372
  92.4000           282.687       5.579
  92.4500           291.947       5.199
  92.5000           295.907       5.459
  92.5500           305.917       5.581
  92.6000           301.626       5.756
  92.6500           309.417       5.339
  92.7000           313.850       5.645
  92.7500           301.648       5.766
  92.8000           290.006       5.366
  92.8500           281.705       5.099
  92.9000           281.977       5.346
  92.9500           269.997       5.262
  93.0000           268.255       5.229
  93.0500           261.670       5.136
  93.1000           258.774       5.103
  93.1500           266.249       5.168
  93.2000           267.583       5.187
  93.2500           269.205       5.243
  93.3000           272.194       5.460
  93.3500           287.277       5.225
  93.4000           306.304       5.747
  93.4500           319.959       5.544
  93.5000           357.981       6.231
  93.5500           389.592       6.056
  93.6000           415.394       6.743
  93.6500           431.467       6.577
  93.7000           425.725       6.528
  93.7500           395.085       6.298
  93.8000           358.281       5.953
  93.8500           346.040       5.722
  93.9000           312.073       5.838
  93.9500           287.350       5.398
  94.0000           286.278       5.406
  94.0500           274.639       5.218
  94.1000           266.771       4.973
  94.1500           263.825       5.314
  94.2000           257.395       5.377
  94.2500           264.417       5.165
  94.3000           263.452       5.145
  94.3500           264.159       5.161
  94.4000           262.210       5.140
  94.4500           265.861       5.205
  94.5000           257.335       5.060
  94.5500           265.627       4.985
  94.6000           265.048       5.159
  94.6500           257.625       5.078
  94.7000           263.110       5.143
  94.7500           268.755       5.219
  94.8000           268.019       5.205
  94.8500           261.931       5.154
  94.9000           271.364       5.305
  94.9500           281.508       5.535
  95.0000           278.093       5.275
  95.0500           286.681       5.361
  95.1000           291.832       5.408
  95.1500           297.026       5.452
  95.2000           299.626       5.504
  95.2500           307.572       5.585
  95.3000           320.024       5.701
  95.3500           353.119       5.944
  95.4000           395.654       6.292
  95.4500           461.347       6.793
  95.5000           568.752       7.542
  95.5500           729.158       8.534
  95.6000           975.743       9.877
  95.6500          1306.154      11.425
  95.7000          1663.916      12.907
  95.7500          2004.026      14.163
  95.8000          2306.750      15.198
  95.8500          2552.671      15.991
  95.9000          2790.036      16.717
  95.9500          2989.513      17.307
  96.0000          3094.141      17.605
  96.0500          3001.890      17.341
  96.1000          2702.206      16.445
  96.1500          2190.625      14.804
  96.2000          1689.489      13.001
  96.2500          1276.671      11.296
  96.3000           948.758       9.783
  96.3500           721.587       8.499
  96.4000           574.864       7.582
  96.4500           486.628       6.975
  96.5000           402.479       6.341
  96.5500           371.899       6.101
  96.6000           342.506       5.861
  96.6500           327.601       5.760
  96.7000           312.211       5.597
  96.7500           303.253       5.509
  96.8000           299.950       5.479
  96.8500           291.200       5.399
  96.9000           293.549       5.423
  96.9500           290.534       5.420
  97.0000           297.910       5.461
  97.0500           301.545       5.498
  97.1000           308.951       5.562
  97.1500           323.111       5.700
  97.2000           340.770       5.849
  97.2500           333.038       5.784
  97.3000           330.749       5.757
  97.3500           315.228       5.629
  97.4000           309.351       5.653
  97.4500           296.891       5.487
  97.5000           288.645       5.520
  97.5500           285.270       5.350
  97.6000           266.863       5.213
  97.6500           272.626       5.281
  97.7000           263.074       5.191
  97.7500           263.432       5.138
  97.8000           265.145       5.191
  97.8500           264.921       5.180
  97.9000           266.970       5.179
  97.9500           271.738       5.225
  98.0000           272.245       5.248
  98.0500           271.326       5.228
  98.1000           278.953       5.302
  98.1500           281.306       5.325
  98.2000           274.353       5.245
  98.2500           273.672       5.241
  98.3000           275.196       5.259
  98.3500           280.114       5.330
  98.4000           279.432       5.292
  98.4500           272.976       5.237
  98.5000           278.619       5.290
  98.5500           278.452       5.280
  98.6000           276.840       5.289
  98.6500           281.405       5.336
  98.7000           295.816       5.447
  98.7500           302.062       5.521
  98.8000           321.407       5.700
  98.8500           350.085       5.938
  98.9000           396.577       6.298
  98.9500           467.199       6.836
  99.0000           581.123       7.623
  99.0500           724.737       8.515
  99.1000           890.558       9.442
  99.1500          1034.775      10.187
  99.2000          1167.374      10.844
  99.2500          1243.390      11.160
  99.3000          1315.445      11.479
  99.3500          1373.793      11.732
  99.4000          1398.684      11.837
  99.4500          1408.689      11.880
  99.5000          1343.755      11.600
  99.5500          1199.891      10.967
  99.6000          1015.279      10.100
  99.6500           835.505       9.144
  99.7000           669.409       8.184
  99.7500           530.582       7.296
  99.8000           450.987       6.719
  99.8500           397.222       6.310
  99.9000           352.025       5.951
  99.9500           314.634       5.636
 100.0000           298.431       5.521
 100.0500           299.754       5.516
 100.1000           291.998       5.407
 100.1500           278.211       5.278
 100.2000           279.002       5.289
 100.2500           280.506       5.310
 100.3000           274.340       5.239
 100.3500           281.411       5.309
 100.4000           278.784       5.287
 100.4500           277.442       5.269
 100.5000           265.450       5.169
 100.5500           267.524       5.219
 100.6000           267.710       5.181
 100.6500           263.050       5.134
 100.7000           265.680       5.244
 100.7500           264.689       5.152
 100.8000           275.010       5.264
 100.8500           272.945       5.252
 100.9000           268.314       5.193
 100.9500           269.082       5.189
 101.0000           268.289       5.191
 101.0500           268.634       5.221
 101.1000           268.063       5.233
 101.1500           265.002       5.155
 101.2000           281.742       5.323
 101.2500           285.573       5.394
 101.3000           287.432       5.365
 101.3500           301.537       5.494
 101.4000           316.448       5.639
 101.4500           306.635       5.582
 101.5000           302.330       5.557
 101.5500           304.947       5.535
 101.6000           311.703       5.606
 101.6500           315.047       5.635
 101.7000           323.330       5.691
 101.7500           322.466       5.686
 101.8000           322.471       5.690
 101.8500           316.451       5.639
 101.9000           304.563       5.560
 101.9500           286.458       5.392
 102.0000           281.793       5.330
 102.0500           283.288       5.329
 102.1000           272.452       5.280
 102.1500           261.260       5.117
 102.2000           264.393       5.145
 102.2500           260.873       5.109
 102.3000           268.758       5.185
 102.3500           264.978       5.153
 102.4000           267.702       5.205
 102.4500           270.139       5.240
 102.5000           274.546       5.290
 102.5500           281.460       5.359
 102.6000           290.632       5.399
 102.6500           290.131       5.396
 102.7000           291.093       5.422
 102.7500           293.714       5.426
 102.8000           301.476       5.518
 102.8500           297.480       5.486
 102.9000           298.765       5.511
 102.9500           298.249       5.468
 103.0000           285.592       5.354
 103.0500           281.279       5.327
 103.1000           275.484       5.277
 103.1500           266.198       5.160
 103.2000           267.052       5.177
 103.2500           272.311       5.232
 103.3000           268.253       5.183
 103.3500           269.629       5.246
 103.4000           278.253       5.313
 103.4500           270.492       5.271
 103.5000           271.441       5.296
 103.5500           274.055       5.334
 103.6000           280.701       5.346
 103.6500           286.655       5.389
 103.7000           272.758       5.250
 103.7500           275.988       5.288
 103.8000           289.960       5.428
 103.8500           284.113       5.345
 103.9000           271.858       5.220
 103.9500           267.894       5.182
 104.0000           270.527       5.217
 104.0500           268.619       5.217
 104.1000           269.610       5.243
 104.1500           269.192       5.273
 104.2000           275.128       5.323
 104.2500           272.695       5.247
 104.3000           281.999       5.355
 104.3500           282.849       5.347
 104.4000           293.732       5.440
 104.4500           289.265       5.413
 104.5000           303.878       5.522
 104.5500           305.606       5.691
 104.6000           316.650       5.648
 104.6500           348.675       5.911
 104.7000           399.514       6.322
 104.7500           477.868       6.934
 104.8000           598.570       7.734
 104.8500           774.601       8.798
 104.9000          1027.057      10.126
 104.9500          1320.741      11.495
 105.0000          1609.545      12.694
 105.0500          1806.136      13.450
 105.1000          1804.122      13.441
 105.1500          1662.165      12.903
 105.2000          1498.465      12.252
 105.2500          1370.384      11.718
 105.3000          1293.934      11.384
 105.3500          1200.078      10.963
 105.4000          1076.982      10.383
 105.4500           927.657       9.636
 105.5000           757.717       8.705
 105.5500           608.364       7.807
 105.6000           516.713       7.207
 105.6500           451.906       6.726
 105.7000           376.152       6.136
 105.7500           355.347       5.972
 105.8000           334.201       5.798
 105.8500           316.796       5.645
 105.9000           308.221       5.568
 105.9500           308.009       5.573
 106.0000           304.756       5.551
 106.0500           302.110       5.511
 106.1000           305.956       5.550
 106.1500           302.293       5.543
 106.2000           310.914       5.604
 106.2500           322.732       5.722
 106.3000           321.534       5.750
 106.3500           319.985       5.702
 106.4000           317.298       5.639
 106.4500           318.674       5.650
 106.5000           313.953       5.606
 106.5500           306.613       5.540
 106.6000           308.295       5.588
 106.6500           296.764       5.503
 106.7000           297.052       5.510
 106.7500           295.526       5.516
 106.8000           292.371       5.452
 106.8500           291.025       5.418
 106.9000           280.023       5.341
 106.9500           283.459       5.382
 107.0000           285.963       5.457
 107.0500           290.916       5.416
 107.1000           282.943       5.330
 107.1500           293.517       5.433
 107.2000           295.837       5.465
 107.2500           299.217       5.525
 107.3000           315.995       5.640
 107.3500           328.215       5.742
 107.4000           357.000       6.014
 107.4500           359.791       6.003
 107.5000           373.640       6.117
 107.5500           352.808       5.945
 107.6000           353.053       5.945
 107.6500           332.078       5.771
 107.7000           301.394       5.511
 107.7500           297.648       5.476
 107.8000           295.313       5.511
 107.8500           288.590       5.401
 107.9000           287.166       5.385
 107.9500           290.561       5.402
 108.0000           284.679       5.368
 108.0500           282.667       5.362
 108.1000           282.589       5.336
 108.1500           294.457       5.435
 108.2000           303.008       5.524
 108.2500           318.067       5.665
 108.3000           332.698       5.783
 108.3500           355.685       5.969
 108.4000           385.130       6.206
 108.4500           408.050       6.391
 108.5000           431.154       6.568
 108.5500           471.992       6.874
 108.6000           498.171       7.063
 108.6500           535.801       7.324
 108.7000           571.304       7.564
 108.7500           589.056       7.681
 108.8000           584.819       7.657
 108.8500           549.854       7.437
 108.9000           480.242       6.951
 108.9500           449.810       6.712
 109.0000           404.643       6.371
 109.0500           369.756       6.088
 109.1000           331.809       5.787
 109.1500           323.280       5.721
 109.2000           314.752       5.617
 109.2500           305.242       5.533
 109.3000           313.874       5.645
 109.3500           316.450       5.635
 109.4000           331.035       5.756
 109.4500           347.658       5.904
 109.5000           382.830       6.195
 109.5500           437.528       6.615
 109.6000           499.548       7.071
 109.6500           595.536       7.719
 109.7000           717.130       8.473
 109.7500           848.680       9.217
 109.8000           957.475       9.793
 109.8500          1048.308      10.247
 109.9000          1069.455      10.351
 109.9500          1079.254      10.397
 110.0000          1067.663      10.340
 110.0500           994.003       9.978
 110.1000           893.755       9.459
 110.1500           772.439       8.791
 110.2000           652.233       8.081
 110.2500           550.893       7.422
 110.3000           458.499       6.776
 110.3500           395.611       6.297
 110.4000           358.125       6.014
 110.4500           331.345       5.816
 110.5000           320.825       5.690
 110.5500           312.694       5.623
 110.6000           301.888       5.504
 110.6500           305.484       5.581
 110.7000           313.969       5.658
 110.7500           316.835       5.682
 110.8000           330.568       5.757
 110.8500           328.431       5.757
 110.9000           329.372       5.745
 110.9500           334.346       5.792
 111.0000           344.569       5.876
 111.0500           353.267       5.962
 111.1000           363.254       6.037
 111.1500           358.892       6.013
 111.2000           354.963       6.003
 111.2500           353.399       5.956
 111.3000           331.693       5.766
 111.3500           334.280       5.839
 111.4000           332.637       5.804
 111.4500           322.039       5.678
 111.5000           317.490       5.655
 111.5500           320.162       5.717
 111.6000           306.948       5.564
 111.6500           296.521       5.466
 111.7000           293.302       5.438
 111.7500           293.131       5.446
 111.8000           288.047       5.408
 111.8500           289.522       5.431
 111.9000           289.452       5.390
 111.9500           289.826       5.426
 112.0000           289.481       5.393
 112.0500           298.317       5.494
 112.1000           301.692       5.496
 112.1500           310.583       5.591
 112.2000           311.901       5.620
 112.2500           321.382       5.693
 112.3000           330.580       5.772
 112.3500           332.826       5.805
 112.4000           334.757       5.789
 112.4500           331.026       5.759
 112.5000           323.348       5.704
 112.5500           328.466       5.740
 112.6000           320.280       5.688
 112.6500           312.589       5.622
 112.7000           305.904       5.572
 112.7500           299.760       5.479
 112.8000           298.319       5.474
 112.8500           298.550       5.576
 112.9000           297.487       5.509
 112.9500           294.095       5.460
 113.0000           292.648       5.456
 113.0500           291.011       5.467
 113.1000           301.583       5.510
 113.1500           291.748       5.447
 113.2000           291.311       5.490
 113.2500           297.752       5.526
 113.3000           295.238       5.450
 113.3500           293.935       5.447
 113.4000           296.807       5.480
 113.4500           304.823       5.568
 113.5000           298.459       5.499
 113.5500           300.998       5.514
 113.6000           292.353       5.477
 113.6500           300.316       5.491
 113.7000           296.139       5.427
 113.7500           297.480       5.464
 113.8000           307.842       5.497
 113.8500           305.189       5.506
 113.9000           307.548       5.639
 113.9500           313.888       5.675
 114.0000           331.680       5.863
 114.0500           339.216       5.915
 114.1000           361.272       6.035
 114.1500           390.029       6.364
 114.2000           449.269       6.650
 114.2500           518.516       7.255
 114.3000           650.549       8.160
 114.3500           828.634       9.030
 114.4000          1074.975      10.447
 114.4500          1376.001      11.866
 114.5000          1738.685      13.110
 114.5500          2052.280      14.496
 114.6000          2314.465      15.512
 114.6500          2484.184      15.629
 114.7000          2659.768      16.198
 114.7500          2858.691      17.146
 114.8000          2971.185      17.123
 114.8500          3030.009      17.618
 114.9000          2963.843      17.495
 114.9500          2777.046      16.554
 115.0000          2489.492      15.583
 115.0500          2123.173      14.790
 115.1000          1699.463      13.245
 115.1500          1313.263      11.398
 115.2000          1043.312      10.295
 115.2500           811.877       8.978
 115.3000           652.996       8.037
 115.3500           537.789       7.474
 115.4000           460.412       6.887
 115.4500           409.987       6.387
 115.5000           376.208       6.221
 115.5500           350.196       5.945
 115.6000           343.275       5.829
 115.6500           341.752       5.952
 115.7000           331.161       5.904
 115.7500           312.569       5.683
 115.8000           307.327       5.663
 115.8500           305.303       5.569
 115.9000           310.673       5.541
 115.9500           299.459       5.552
 116.0000           300.804       5.614
 116.0500           302.310       5.484
 116.1000           299.432       5.582
 116.1500           297.596       5.425
 116.2000           298.668       5.385
 116.2500           296.835       5.437
 116.3000           295.809       5.296
 116.3500           305.062       5.532
 116.4000           299.479       5.620
 116.4500           303.368       5.703
 116.5000           306.016       5.747
 116.5500           301.321       5.527
 116.6000           304.265       5.538
 116.6500           320.914       5.686
 116.7000           321.058       5.548
 116.7500           337.372       5.926
 116.8000           346.301       6.045
 116.8500           364.995       6.084
 116.9000           379.675       6.338
 116.9500           387.318       6.277
 117.0000           371.541       6.010
 117.0500           358.526       6.014
 117.1000           356.195       5.974
 117.1500           352.108       5.938
 117.2000           356.932       6.001
 117.2500           364.299       6.074
 117.3000           368.214       6.102
 117.3500           384.221       6.221
 117.4000           387.749       6.331
 117.4500           376.471       6.005
 117.5000           363.175       5.984
 117.5500           341.122       5.931
 117.6000           327.258       5.840
 117.6500           324.857       5.726
 117.7000           318.596       5.788
 117.7500           306.246       5.570
 117.8000           302.755       5.532
 117.8500           315.683       5.730
 117.9000           335.238       5.991
 117.9500           362.703       5.958
 118.0000           393.396       6.432
 118.0500           439.330       6.664
 118.1000           491.600       6.936
 118.1500           555.373       7.649
 118.2000           603.837       7.992
 118.2500           656.771       7.985
 118.3000           746.365       8.764
 118.3500           837.980       9.123
 118.4000           982.211       9.875
 118.4500          1162.208      10.795
 118.5000          1357.902      11.796
 118.5500          1513.021      12.411
 118.6000          1634.604      13.201
 118.6500          1672.645      13.070
 118.7000          1615.984      13.033
 118.7500          1494.885      12.853
 118.8000          1267.925      10.885
 118.8500          1043.657      10.175
 118.9000           852.115       9.208
 118.9500           693.112       8.446
 119.0000           574.330       7.647
 119.0500           482.274       6.895
 119.1000           413.586       6.424
 119.1500           375.969       6.070
 119.2000           350.937       5.913
 119.2500           335.262       5.890
 119.3000           336.528       5.897
 119.3500           334.544       5.893
 119.4000           339.780       5.929
 119.4500           346.927       5.927
 119.5000           348.782       5.970
 119.5500           360.620       5.883
 119.6000           381.998       6.221
 119.6500           400.109       6.475
 119.7000           437.560       6.644
 119.7500           479.504       6.972
 119.8000           532.564       7.422
 119.8500           595.047       7.548
 119.9000           653.577       8.025
 119.9500           704.885       8.289
 120.0000           711.370       8.503
 120.0500           673.008       8.301
 120.1000           600.011       7.863
 120.1500           514.274       7.145
 120.2000           459.182       6.914
 120.2500           410.345       6.435
 120.3000           377.370       6.267
 120.3500           341.149       5.934
 120.4000           314.677       5.737
 120.4500           304.526       5.464
 120.5000           304.590       5.679
 120.5500           305.269       5.528
 120.6000           302.380       5.414
 120.6500           301.434       5.582
 120.7000           306.678       5.609
 120.7500           314.855       5.586
 120.8000           322.050       5.700
 120.8500           339.136       5.887
 120.9000           341.362       5.889
 120.9500           343.638       5.911
 121.0000           343.135       5.806
 121.0500           339.724       5.883
 121.1000           345.196       6.002
 121.1500           342.803       5.993
 121.2000           329.312       5.881
 121.2500           322.719       5.731
 121.3000           323.565       5.746
 121.3500           316.412       5.530
 121.4000           313.168       5.619
 121.4500           308.803       5.569
 121.5000           304.556       5.508
 121.5500           305.597       5.530
 121.6000           303.121       5.600
 121.6500           304.655       5.524
 121.7000           303.201       5.547
 121.7500           308.165       5.550
 121.8000           316.773       5.657
 121.8500           321.257       5.701
 121.9000           333.502       5.892
 121.9500           355.517       6.062
 122.0000           386.037       6.346
 122.0500           417.085       6.373
 122.1000           425.338       6.516
 122.1500           421.832       6.458
 122.2000           432.733       6.567
 122.2500           409.324       6.516
 122.3000           385.645       6.252
 122.3500           387.694       6.299
 122.4000           381.854       6.336
 122.4500           393.674       6.382
 122.5000           417.002       6.674
 122.5500           444.258       6.646
 122.6000           463.063       6.745
 122.6500           460.547       6.722
 122.7000           426.254       6.428
 122.7500           394.855       6.267
 122.8000           368.663       6.185
 122.8500           347.801       6.035
 122.9000           331.658       5.791
 122.9500           316.141       5.562
 123.0000           304.971       5.584
 123.0500           297.291       5.471
 123.1000           289.474       5.389
 123.1500           292.052       5.460
 123.2000           289.755       5.568
 123.2500           296.049       5.534
 123.3000           303.915       5.566
 123.3500           297.878       5.543
 123.4000           296.336       5.586
 123.4500           298.017       5.599
 123.5000           297.413       5.365
 123.5500           291.645       5.419
 123.6000           287.399       5.519
 123.6500           287.219       5.411
 123.7000           285.699       5.522
 123.7500           289.559       5.434
 123.8000           284.760       5.411
 123.8500           283.947       5.513
 123.9000           290.984       5.472
 123.9500           287.316       5.342
 124.0000           284.322       5.379
 124.0500           286.725       5.319
 124.1000           284.425       5.352
 124.1500           291.846       5.418
 124.2000           300.278       5.421
 124.2500           312.343       5.578
 124.3000           329.243       5.721
 124.3500           346.712       5.944
 124.4000           372.123       6.183
 124.4500           419.150       6.567
 124.5000           477.488       7.050
 124.5500           574.633       7.640
 124.6000           708.378       8.426
 124.6500           874.970       9.324
 124.7000          1100.565      10.603
 124.7500          1352.923      11.786
 124.8000          1565.686      12.504
 124.8500          1762.146      13.485
 124.9000          1993.159      14.593
 124.9500          2246.828      15.016
 125.0000          2582.911      16.334
 125.0500          2997.278      17.278
 125.1000          3417.462      18.171
 125.1500          3836.511      19.709
 125.2000          4164.354      20.131
 125.2500          4355.126      20.846
 125.3000          4349.790      20.861
 125.3500          4188.444      20.431
 125.4000          3804.838      19.448
 125.4500          3324.782      18.246
 125.5000          2771.298      16.682
 125.5500          2246.696      15.227
 125.6000          1762.469      13.313
 125.6500          1368.015      11.906
 125.7000          1062.126      10.460
 125.7500           842.530       9.096
 125.8000           673.549       8.135
 125.8500           544.329       7.414
 125.9000           465.440       6.869
 125.9500           420.988       6.525
 126.0000           394.627       6.286
 126.0500           368.202       6.106
 126.1000           353.518       6.187
 126.1500           347.974       5.931
 126.2000           347.699       5.920
 126.2500           337.775       5.857
 126.3000           332.966       5.858
 126.3500           323.156       5.788
 126.4000           331.876       5.730
 126.4500           329.597       5.749
 126.5000           336.194       5.959
 126.5500           344.672       5.954
 126.6000           350.841       5.884
 126.6500           358.076       5.954
 126.7000           369.977       6.105
 126.7500           363.800       6.063
 126.8000           363.240       5.976
 126.8500           352.625       6.052
 126.9000           331.848       5.765
 126.9500           321.489       5.771
 127.0000           311.520       5.759
 127.0500           307.525       5.627
 127.1000           294.519       5.428
 127.1500           287.334       5.369
 127.2000           287.241       5.376
 127.2500           280.499       5.396
 127.3000           294.642       5.499
 127.3500           286.264       5.343
 127.4000           280.443       5.376
 127.4500           280.828       5.300
 127.5000           285.035       5.327
 127.5500           284.425       5.429
 127.6000           293.169       5.399
 127.6500           300.778       5.514
 127.7000           307.820       5.512
 127.7500           310.770       5.627
 127.8000           315.436       5.684
 127.8500           326.967       5.779
 127.9000           321.861       5.659
 127.9500           312.298       5.729
 128.0000           300.856       5.553
 128.0500           302.074       5.489
 128.1000           294.992       5.413
 128.1500           287.503       5.424
 128.2000           278.467       5.267
 128.2500           274.566       5.276
 128.3000           275.921       5.280
 128.3500           276.447       5.300
 128.4000           270.630       5.305
 128.4500           282.952       5.265
 128.5000           284.101       5.329
 128.5500           283.867       5.390
 128.6000           287.048       5.443
 128.6500           294.388       5.508
 128.7000           315.424       5.752
 128.7500           336.374       5.846
 128.8000           365.689       6.110
 128.8500           403.700       6.424
 128.9000           462.056       6.889
 128.9500           534.506       7.344
 129.0000           634.585       7.968
 129.0500           747.176       8.648
 129.1000           855.742       9.215
 129.1500           947.330       9.725
 129.2000          1013.103      10.196
 129.2500          1033.240      10.129
 129.3000          1049.084      10.398
 129.3500          1037.031      10.142
 129.4000          1041.017      10.170
 129.4500          1056.081      10.381
 129.5000          1080.787      10.342
 129.5500          1125.823      10.709
 129.6000          1169.765      10.944
 129.6500          1156.801      10.703
 129.7000          1118.674      10.712
 129.7500          1051.023      10.386
 129.8000           937.962       9.638
 129.8500           841.900       9.300
 129.9000           732.488       8.694
 129.9500           623.832       7.907
 130.0000           549.588       7.426
 130.0500           498.471       7.072
 130.1000           456.473       6.771
 130.1500           433.973       6.603
 130.2000           435.486       6.609
 130.2500           457.500       6.775
 130.3000           498.032       7.069
 130.3500           570.000       7.562
 130.4000           633.390       7.975
 130.4500           699.319       8.373
 130.5000           758.456       8.720
 130.5500           814.724       9.039
 130.6000           816.430       9.048
 130.6500           792.509       8.911
 130.7000           781.279       8.831
 130.7500           769.472       8.780
 130.8000           771.811       8.781
 130.8500           798.812       8.951
 130.9000           829.916       9.121
 130.9500           868.129       9.290
 131.0000           877.121       9.374
 131.0500           881.001       9.513
 131.1000           869.272       9.317
 131.1500           829.064       9.254
 131.2000           758.534       8.671
 131.2500           675.176       8.196
 131.3000           608.682       7.926
 131.3500           549.249       7.406
 131.4000           488.490       7.000
 131.4500           427.762       6.610
 131.5000           374.701       6.114
 131.5500           349.875       5.996
 131.6000           323.941       5.770
 131.6500           293.886       5.423
 131.7000           289.044       5.394
 131.7500           283.868       5.335
 131.8000           276.910       5.295
 131.8500           277.849       5.399
 131.9000           274.516       5.271
 131.9500           271.708       5.241
 132.0000           267.682       5.253
 132.0500           272.538       5.239
 132.1000           279.332       5.398
 132.1500           273.698       5.269
 132.2000           280.068       5.344
 132.2500           282.208       5.359
 132.3000           287.487       5.396
 132.3500           296.764       5.472
 132.4000           306.088       5.540
 132.4500           305.316       5.549
 132.5000           307.356       5.561
 132.5500           317.438       5.673
 132.6000           309.287       5.570
 132.6500           312.876       5.610
 132.7000           305.664       5.559
 132.7500           304.161       5.543
 132.8000           281.422       5.321
 132.8500           276.482       5.257
 132.9000           278.558       5.298
 132.9500           274.556       5.248
 133.0000           266.746       5.230
 133.0500           258.978       5.113
 133.1000           255.488       5.083
 133.1500           265.588       5.162
 133.2000           259.403       5.111
 133.2500           253.463       5.109
 133.3000           256.990       5.113
 133.3500           272.552       5.311
 133.4000           262.229       5.134
 133.4500           261.478       5.159
 133.5000           267.987       5.253
 133.5500           282.090       5.362
 133.6000           289.947       5.414
 133.6500           298.975       5.552
 133.7000           314.048       5.681
 133.7500           327.212       5.771
 133.8000           347.362       5.926
 133.8500           353.988       5.970
 133.9000           354.762       5.986
 133.9500           344.873       5.927
 134.0000           344.849       5.907
 134.0500           351.191       5.934
 134.1000           339.110       5.833
 134.1500           327.748       5.733
 134.2000           317.263       5.662
 134.2500           302.633       5.532
 134.3000           295.454       5.489
 134.3500           291.106       5.465
 134.4000           284.942       5.384
 134.4500           278.689       5.275
 134.5000           277.517       5.290
 134.5500           269.635       5.235
 134.6000           266.207       5.232
 134.6500           264.337       5.169
 134.7000           267.274       5.206
 134.7500           269.957       5.212
 134.8000           261.954       5.148
 134.8500           264.444       5.255
 134.9000           264.880       5.176
 134.9500           275.732       5.274
 135.0000           274.736       5.239
 135.0500           278.247       5.334
 135.1000           267.050       5.228
 135.1500           265.243       5.209
 135.2000           268.068       5.203
 135.2500           269.923       5.264
 135.3000           272.084       5.259
 135.3500           271.327       5.249
 135.4000           267.390       5.176
 135.4500           267.436       5.188
 135.5000           274.768       5.304
 135.5500           273.799       5.280
 135.6000           272.760       5.248
 135.6500           268.510       5.203
 135.7000           274.883       5.257
 135.7500           269.533       5.215
 135.8000           278.118       5.310
 135.8500           279.297       5.364
 135.9000           269.069       5.228
 135.9500           273.993       5.269
 136.0000           271.852       5.270
 136.0500           273.705       5.261
 136.1000           278.854       5.275
 136.1500           282.787       5.327
 136.2000           289.828       5.407
 136.2500           292.617       5.429
 136.3000           308.093       5.522
 136.3500           326.946       5.667
 136.4000           334.121       5.789
 136.4500           351.221       5.941
 136.5000           384.823       6.220
 136.5500           437.368       6.625
 136.6000           478.004       6.927
 136.6500           542.221       7.374
 136.7000           611.222       7.833
 136.7500           679.105       8.255
 136.8000           760.441       8.736
 136.8500           842.530       9.197
 136.9000           923.422       9.628
 136.9500           995.784       9.998
 137.0000          1062.312      10.327
 137.0500          1099.215      10.506
 137.1000          1136.852      10.688
 137.1500          1175.261      10.863
 137.2000          1196.552      10.962
 137.2500          1210.176      11.024
 137.3000          1223.160      11.082
 137.3500          1195.747      10.957
 137.4000          1179.219      10.888
 137.4500          1125.677      10.649
 137.5000          1043.325      10.235
 137.5500           972.593       9.883
 137.6000           879.089       9.399
 137.6500           769.904       8.790
 137.7000           664.435       8.164
 137.7500           566.104       7.566
 137.8000           495.066       7.062
 137.8500           447.572       6.704
 137.9000           408.883       6.407
 137.9500           374.830       6.137
 138.0000           348.792       5.916
 138.0500           344.010       5.877
 138.1000           325.402       5.716
 138.1500           311.816       5.603
 138.2000           308.976       5.598
 138.2500           302.333       5.550
 138.3000           301.612       5.566
 138.3500           309.437       5.634
 138.4000           310.704       5.595
 138.4500           308.260       5.562
 138.5000           320.564       5.675
 138.5500           321.483       5.715
 138.6000           337.374       5.834
 138.6500           341.484       5.857
 138.7000           361.398       6.049
 138.7500           375.877       6.143
 138.8000           393.404       6.283
 138.8500           403.357       6.362
 138.9000           412.231       6.431
 138.9500           419.534       6.492
 139.0000           428.218       6.626
 139.0500           428.539       6.558
 139.1000           422.591       6.513
 139.1500           423.455       6.519
 139.2000           418.472       6.481
 139.2500           390.749       6.261
 139.3000           375.961       6.147
 139.3500           368.072       6.085
 139.4000           363.422       6.052
 139.4500           342.726       5.869
 139.5000           332.049       5.786
 139.5500           328.676       5.815
 139.6000           322.563       5.729
 139.6500           317.553       5.649
 139.7000           317.082       5.670
 139.7500           326.488       5.778
 139.8000           331.700       5.772
 139.8500           338.337       5.849
 139.9000           352.572       5.968
 139.9500           375.724       6.139
 140.0000           391.764       6.270
 140.0500           410.962       6.423
 140.1000           420.862       6.500
 140.1500           430.845       6.596
 140.2000           439.303       6.663
 140.2500           454.749       6.757
 140.3000           440.794       6.659
 140.3500           443.123       6.685
 140.4000           446.953       6.706
 140.4500           448.629       6.727
 140.5000           455.183       6.760
 140.5500           457.557       6.780
 140.6000           446.794       6.703
 140.6500           456.750       6.781
 140.7000           453.889       6.751
 140.7500           448.401       6.712
 140.8000           450.250       6.724
 140.8500           435.745       6.615
 140.9000           428.402       6.562
 140.9500           406.907       6.410
 141.0000           405.886       6.383
 141.0500           380.321       6.196
 141.1000           362.907       6.051
 141.1500           350.599       5.934
 141.2000           337.153       5.831
 141.2500           329.628       5.778
 141.3000           313.120       5.624
 141.3500           320.264       5.677
 141.4000           314.147       5.667
 141.4500           318.320       5.667
 141.5000           327.487       5.735
 141.5500           335.540       5.819
 141.6000           343.115       5.873
 141.6500           355.657       5.976
 141.7000           376.228       6.157
 141.7500           398.974       6.336
 141.8000           427.238       6.553
 141.8500           456.246       6.770
 141.9000           481.854       6.957
 141.9500           513.438       7.180
 142.0000           560.339       7.502
 142.0500           595.531       7.734
 142.1000           629.042       7.948
 142.1500           662.939       8.160
 142.2000           696.047       8.362
 142.2500           707.345       8.431
 142.3000           701.042       8.392
 142.3500           717.946       8.495
 142.4000           711.080       8.467
 142.4500           713.394       8.474
 142.5000           743.993       8.648
 142.5500           746.142       8.660
 142.6000           765.960       8.775
 142.6500           801.229       8.973
 142.7000           794.162       8.933
 142.7500           795.666       8.942
 142.8000           789.726       8.907
 142.8500           769.179       8.792
 142.9000           762.985       8.756
 142.9500           736.258       8.599
 143.0000           689.808       8.324
 143.0500           631.182       7.962
 143.1000           572.477       7.584
 143.1500           519.672       7.231
 143.2000           481.224       6.993
 143.2500           441.206       6.669
 143.3000           407.861       6.405
 143.3500           385.354       6.222
 143.4000           357.478       6.002
 143.4500           341.610       5.932
 143.5000           330.750       5.780
 143.5500           320.055       5.700
 143.6000           315.179       5.627
 143.6500           310.911       5.593
 143.7000           312.176       5.613
 143.7500           307.830       5.564
 143.8000           303.975       5.551
 143.8500           308.727       5.598
 143.9000           305.795       5.576
 143.9500           302.863       5.521
 144.0000           299.280       5.507
 144.0500           304.712       5.565
 144.1000           299.514       5.526
 144.1500           299.588       5.522
 144.2000           298.164       5.485
 144.2500           303.136       5.520
 144.3000           298.168       5.512
 144.3500           298.169       5.520
 144.4000           289.282       5.417
 144.4500           297.874       5.477
 144.5000           293.310       5.456
 144.5500           300.989       5.506
 144.6000           304.630       5.565
 144.6500           304.600       5.533
 144.7000           293.995       5.535
 144.7500           300.973       5.561
 144.8000           295.636       5.492
 144.8500           288.423       5.466
 144.9000           293.092       5.474
 144.9500           296.754       5.475
 145.0000           287.971       5.403
 145.0500           299.704       5.504
 145.1000           298.635       5.497
 145.1500           301.270       5.560
 145.2000           298.879       5.591
 145.2500           303.445       5.539
 145.3000           302.407       5.548
 145.3500           299.386       5.570
 145.4000           299.062       5.548
 145.4500           311.835       5.620
 145.5000           307.725       5.618
 145.5500           319.676       5.676
 145.6000           320.302       5.683
 145.6500           334.225       5.801
 145.7000           323.715       5.749
 145.7500           331.559       5.794
 145.8000           340.863       5.854
 145.8500           350.200       5.934
 145.9000           358.161       6.000
 145.9500           362.076       6.030
 146.0000           368.624       6.170
 146.0500           376.658       6.195
 146.1000           389.693       6.271
 146.1500           392.227       6.277
 146.2000           376.237       6.172
 146.2500           383.698       6.228
 146.3000           382.336       6.251
 146.3500           380.670       6.219
 146.4000           379.251       6.176
 146.4500           369.089       6.138
 146.5000           370.422       6.129
 146.5500           354.062       5.978
 146.6000           347.854       5.921
 146.6500           340.911       5.883
 146.7000           346.996       5.934
 146.7500           329.130       5.774
 146.8000           331.031       5.787
 146.8500           326.380       5.757
 146.9000           319.728       5.684
 146.9500           314.058       5.647
 147.0000           312.972       5.646
 147.0500           304.167       5.553
 147.1000           309.653       5.615
 147.1500           303.121       5.552
 147.2000           305.096       5.545
 147.2500           305.873       5.562
 147.3000           315.751       5.647
 147.3500           316.024       5.676
 147.4000           309.459       5.636
 147.4500           315.510       5.657
 147.5000           333.964       5.823
 147.5500           336.523       5.827
 147.6000           333.508       5.792
 147.6500           350.121       5.934
 147.7000           358.279       6.009
 147.7500           365.104       6.066
 147.8000           368.458       6.109
 147.8500           374.422       6.198
 147.9000           382.751       6.283
 147.9500           378.048       6.195
 148.0000           388.664       6.264
 148.0500           390.131       6.270
 148.1000           397.030       6.335
 148.1500           383.538       6.234
 148.2000           382.032       6.243
 148.2500           376.016       6.208
 148.3000           372.550       6.193
 148.3500           374.497       6.228
 148.4000           365.800       6.174
 148.4500           365.338       6.207
 148.5000           345.923       6.064
 148.5500           348.257       6.169
 148.6000           339.671       6.044
 148.6500           339.920       6.105
 148.7000           335.281       6.130
 148.7500           326.989       6.061
 148.8000           318.652       6.009
 148.8500           308.182       5.881
 148.9000           310.445       5.895
 148.9500           304.336       5.836
 149.0000           305.308       5.842
 149.0500           296.349       5.756
 149.1000           291.989       5.732
 149.1500           292.830       5.753
 149.2000           294.658       5.792
 149.2500           291.440       5.724
 149.3000           291.733       5.760
 149.3500           291.164       5.739
 149.4000           280.982       5.677
 149.4500           292.644       5.801
 149.5000           282.773       5.705
 149.5500           272.134       5.589
 149.6000           275.660       5.640
 149.6500           282.512       5.728
 149.7000           272.299       5.657
 149.7500           272.984       5.682
 149.8000           281.219       5.788
 149.8500           282.534       5.838
 149.9000           280.550       5.866
 149.9500           284.455       5.933
 150.0000           277.659       5.921
 150.0500           282.900       5.975
 150.1000           283.131       5.965
 150.1500           283.637       5.978
 150.2000           281.724       6.016
 150.2500           288.944       6.055
 150.3000           288.515       6.042
 150.3500           282.617       5.981
 150.4000           279.560       5.929
 150.4500           286.601       6.051
 150.5000           283.762       6.033
 150.5500           283.525       6.002
 150.6000           277.714       5.952
 150.6500           283.444       6.057
 150.7000           286.491       6.081
 150.7500           288.756       6.130
 150.8000           291.375       6.143
 150.8500           287.830       6.152
 150.9000           289.676       6.163
 150.9500           291.320       6.225
 151.0000           295.927       6.332
 151.0500           300.356       6.373
 151.1000           299.806       6.395
 151.1500           297.797       6.470
 151.2000           301.196       6.508
 151.2500           301.745       6.591
 151.3000           318.061       6.765
 151.3500           324.017       6.851
 151.4000           329.635       6.887
 151.4500           337.045       6.962
 151.5000           348.478       7.109
 151.5500           380.260       7.404
 151.6000           401.414       7.602
 151.6500           412.527       7.719
 151.7000           450.838       8.076
 151.7500           495.438       8.453
 151.8000           539.494       8.842
 151.8500           598.599       9.335
 151.9000           667.954       9.895
 151.9500           730.864      10.392
 152.0000           834.858      11.148
 152.0500           901.084      11.618
 152.1000           959.623      12.010
 152.1500          1028.341      12.470
 152.2000          1137.184      13.178
 152.2500          1202.856      13.614
 152.3000          1263.396      14.020
 152.3500          1323.238      14.430
 152.4000          1387.571      14.896
 152.4500          1411.979      15.197
 152.5000          1455.402      15.647
 152.5500          1542.007      16.110
 152.6000          1615.741      16.490
 152.6500          1696.969      16.899
 152.7000          1789.483      17.356
 152.7500          1860.849      17.701
 152.8000          1954.489      18.144
 152.8500          2081.131      18.717
 152.9000          2201.104      19.245
 152.9500          2277.425      19.577
 153.0000          2377.445      20.034
 153.0500          2450.860      20.386
 153.1000          2554.241      20.887
 153.1500          2567.077      21.009
 153.2000          2607.012      21.247
 153.2500          2636.915      21.438
 153.3000          2617.060      21.413
 153.3500          2560.883      21.267
 153.4000          2485.853      21.023
 153.4500          2403.888      20.778
 153.5000          2331.724      20.575
 153.5500          2208.939      20.167
 153.6000          2056.931      19.617
 153.6500          1914.463      19.114
 153.7000          1786.326      18.705
 153.7500          1613.251      18.047
 153.8000          1425.984      16.971
 153.8500          1281.778      16.095
 153.9000          1159.047      15.308
 153.9500          1038.329      14.487
 154.0000           925.178      13.679
 154.0500           821.320      12.881
 154.1000           725.117      12.117
 154.1500           666.970      11.615
 154.2000           587.204      10.922
 154.2500           538.837      10.521
 154.3000           501.480      10.222
 154.3500           473.018       9.968
 154.4000           438.728       9.654
 154.4500           404.826       9.329
 154.5000           376.995       8.996
 154.5500           371.256       8.965
 154.6000           370.697       9.001
 154.6500           367.137       9.029
 154.7000           351.614       8.847
 154.7500           322.134       8.512
 154.8000           321.277       8.554
 154.8500           329.179       8.731
 154.9000           310.038       8.549
 154.9500           305.642       8.631
 155.0000           298.533       8.673
 155.0500           303.299       8.743
 155.1000           290.436       8.561
 155.1500           295.949       8.649
 155.2000           292.241       8.581
 155.2500           297.873       8.682
 155.3000           298.408       8.674
 155.3500           284.189       8.458
 155.4000           289.558       8.572
 155.4500           297.077       8.703
 155.5000           294.762       8.701
 155.5500           297.040       8.794
 155.6000           287.900       8.706
 155.6500           284.259       8.725
 155.7000           295.790       8.930
 155.7500           307.373       9.130
 155.8000           299.763       9.069
 155.8500           313.391       9.338
 155.9000           312.820       9.380
 155.9500           301.513       9.281
 156.0000           308.115       9.453
 156.0500           314.750       9.635
 156.1000           293.694       9.412
 156.1500           316.446       9.893
 156.2000           310.848      10.005
 156.2500           293.868       9.936
 156.3000           301.697      10.066
 156.3500           308.353      10.173
 156.4000           295.990       9.975
 156.4500           292.148       9.885
 156.5000           295.998       9.964
 156.5500           283.822       9.761
 156.6000           282.732       9.762
 156.6500           292.840       9.965
 156.7000           296.255      10.075
 156.7500           285.899       9.992
 156.8000           274.151       9.883
 156.8500           282.231      10.144
 156.9000           283.602      10.274
 156.9500           291.714      10.542
 157.0000           267.078      10.055
 157.0500           277.207      10.345
 157.1000           293.916      10.713
 157.1500           271.601      10.389
 157.2000           278.020      10.601
 157.2500           280.113      10.818
 157.3000           270.748      10.805
 157.3500           279.650      11.107
 157.4000           278.193      11.273
 157.4500           271.440      11.394
 157.5000           266.483      11.569
 157.5500           279.038      11.835
 157.6000           274.016      11.718
 157.6500           275.708      11.758
 157.7000           284.266      11.953
 157.7500           283.765      11.947
 157.8000           301.945      12.370
 157.8500           309.409      12.553
 157.9000           289.501      12.231
 157.9500           286.677      12.287
 158.0000           290.687      12.555
 158.0500           279.541      12.471
 158.1000           289.464      12.877
 158.1500           292.618      13.213
 158.2000           291.479      13.193
 158.2500           311.179      13.893
 158.3000           323.437      14.408
 158.3500           302.986      14.176
 158.4000           299.070      14.177
 158.4500           295.135      14.578
 158.5000           300.720      14.946
 158.5500           290.655      15.070
 158.6000           292.097      15.415
 158.6500           285.307      15.533
 158.7000           295.213      16.455
 158.7500           281.754      16.762
 158.8000           279.092      16.636
 158.8500           281.448      16.750
 158.9000           270.772      16.409
 158.9500           271.546      16.543
 159.0000           303.796      17.624
 159.0500           306.723      18.033
 159.1000           308.487      18.355
 159.1500           283.469      17.866
 159.2000           289.064      18.398
 159.2500           260.814      17.573
 159.3000           306.815      19.489
 159.3500           293.861      19.443
 159.4000           275.398      19.426
 159.4500           298.688      20.672
 159.5000           303.061      21.318
 159.5500           289.625      21.345
 159.6000           258.256      20.866
 159.6500           256.579      21.668
 159.7000           279.140      23.437
 159.7500           281.323      24.815
 159.8000           302.780      27.900
 159.8500           236.014      26.620
 159.9000           211.985      27.983
 159.9500             0.000       0.000
