# XYDATA igartucuel Sr2ScSbO6 @177C (450K) 2theta 
# INTER        1       1       0     0.100000
# TEMP       177.000      177.000      177.000
# d2b Date 12-Sep-08 Time 18:41:39 Run 051310 /d2bcal072.2d 51301>51310
# d2b Date 12-Sep-08 Time 18:41:39 Run 051310 /d2bcal072.2d 51301>51310
# Monitor/counts, Counting time/sec:        225000.00       225000.00
   0.0000             0.000       0.000
   0.0500             0.000       0.000
   0.1000             9.284      14.880
   0.1500            29.667      16.884
   0.2000            21.042       8.646
   0.2500            46.021      13.947
   0.3000            39.250      10.271
   0.3500            34.701       9.607
   0.4000            33.030       7.815
   0.4500            28.332       9.318
   0.5000            34.524       7.604
   0.5500            46.698       9.573
   0.6000            37.152       7.656
   0.6500            35.473       7.843
   0.7000            29.899       7.005
   0.7500            32.337       7.712
   0.8000            33.131       6.619
   0.8500            40.878       7.849
   0.9000            39.526       6.661
   0.9500            41.791       7.309
   1.0000            31.390       6.178
   1.0500            35.947       6.610
   1.1000            36.104       6.208
   1.1500            29.277       5.948
   1.2000            35.721       6.552
   1.2500            33.708       6.073
   1.3000            31.870       5.170
   1.3500            32.909       4.861
   1.4000            32.086       5.308
   1.4500            27.486       4.357
   1.5000            32.137       4.847
   1.5500            30.083       4.476
   1.6000            31.650       4.785
   1.6500            32.646       4.900
   1.7000            35.847       5.299
   1.7500            32.394       4.741
   1.8000            39.401       5.005
   1.8500            35.147       4.695
   1.9000            30.712       4.509
   1.9500            33.836       4.770
   2.0000            29.440       4.602
   2.0500            33.389       4.632
   2.1000            32.798       4.850
   2.1500            38.287       4.947
   2.2000            40.961       5.066
   2.2500            40.258       5.039
   2.3000            34.829       4.828
   2.3500            36.197       4.307
   2.4000            35.716       4.566
   2.4500            38.196       4.664
   2.5000            36.935       4.727
   2.5500            40.703       5.015
   2.6000            40.419       5.182
   2.6500            36.434       4.266
   2.7000            37.068       3.976
   2.7500            35.349       4.065
   2.8000            35.714       4.016
   2.8500            38.061       4.162
   2.9000            37.295       3.857
   2.9500            37.215       4.004
   3.0000            34.920       3.892
   3.0500            35.429       4.004
   3.1000            38.498       4.097
   3.1500            36.053       3.971
   3.2000            35.900       3.845
   3.2500            36.843       3.873
   3.3000            34.275       3.887
   3.3500            34.979       3.814
   3.4000            36.029       3.645
   3.4500            38.396       3.779
   3.5000            41.674       3.726
   3.5500            37.556       4.028
   3.6000            39.022       3.910
   3.6500            38.947       4.056
   3.7000            39.169       3.807
   3.7500            38.268       3.869
   3.8000            40.267       3.693
   3.8500            40.342       3.771
   3.9000            40.377       3.890
   3.9500            39.733       4.000
   4.0000            39.518       3.553
   4.0500            38.688       3.384
   4.1000            39.030       3.502
   4.1500            39.539       3.583
   4.2000            35.696       3.620
   4.2500            38.999       3.454
   4.3000            43.253       3.691
   4.3500            39.569       3.568
   4.4000            41.587       3.565
   4.4500            39.083       3.468
   4.5000            42.021       3.477
   4.5500            42.508       3.382
   4.6000            44.956       3.562
   4.6500            41.181       3.352
   4.7000            40.917       3.399
   4.7500            43.040       3.445
   4.8000            44.553       3.516
   4.8500            46.812       3.489
   4.9000            45.883       3.661
   4.9500            44.203       3.387
   5.0000            45.923       3.543
   5.0500            47.047       3.435
   5.1000            48.728       3.597
   5.1500            47.349       3.669
   5.2000            50.167       3.697
   5.2500            50.326       3.680
   5.3000            49.038       3.700
   5.3500            50.643       3.661
   5.4000            56.149       3.894
   5.4500            61.265       4.095
   5.5000            62.764       3.960
   5.5500            64.011       3.625
   5.6000            60.698       3.413
   5.6500            60.471       3.517
   5.7000            66.196       3.557
   5.7500            68.275       3.686
   5.8000            72.865       3.773
   5.8500            71.805       3.821
   5.9000            77.734       3.739
   5.9500            80.129       3.832
   6.0000            79.736       3.764
   6.0500            90.988       3.991
   6.1000            95.575       3.993
   6.1500            97.553       4.204
   6.2000           101.546       4.064
   6.2500           107.522       4.102
   6.3000           109.215       4.132
   6.3500           114.622       4.161
   6.4000           116.084       4.236
   6.4500           121.301       4.394
   6.5000           129.342       4.371
   6.5500           132.195       4.552
   6.6000           140.105       4.543
   6.6500           146.353       4.646
   6.7000           146.902       4.550
   6.7500           154.941       4.455
   6.8000           162.197       4.536
   6.8500           159.344       4.446
   6.9000           168.690       4.517
   6.9500           171.980       4.593
   7.0000           177.179       4.602
   7.0500           178.321       4.679
   7.1000           182.519       4.660
   7.1500           186.052       4.695
   7.2000           192.616       4.766
   7.2500           199.355       4.860
   7.3000           204.982       5.019
   7.3500           199.877       4.873
   7.4000           209.151       4.957
   7.4500           217.461       5.122
   7.5000           227.538       5.198
   7.5500           225.578       5.122
   7.6000           228.334       5.200
   7.6500           229.068       5.158
   7.7000           227.590       5.145
   7.7500           230.594       5.214
   7.8000           241.949       5.283
   7.8500           249.134       5.395
   7.9000           248.571       5.352
   7.9500           256.481       5.535
   8.0000           258.867       5.493
   8.0500           256.979       5.554
   8.1000           253.639       5.507
   8.1500           258.363       5.469
   8.2000           270.168       5.644
   8.2500           279.723       5.701
   8.3000           281.451       5.735
   8.3500           275.088       5.688
   8.4000           279.371       5.686
   8.4500           278.672       5.757
   8.5000           279.817       5.732
   8.5500           289.165       5.800
   8.6000           288.387       5.847
   8.6500           291.571       5.794
   8.7000           299.183       5.950
   8.7500           293.583       5.840
   8.8000           301.507       5.962
   8.8500           304.419       6.000
   8.9000           294.486       5.854
   8.9500           304.266       5.907
   9.0000           308.782       6.040
   9.0500           307.332       5.944
   9.1000           307.848       6.003
   9.1500           299.114       5.897
   9.2000           309.859       5.981
   9.2500           311.367       6.001
   9.3000           318.581       6.016
   9.3500           311.626       6.033
   9.4000           300.382       5.856
   9.4500           304.355       5.975
   9.5000           304.793       6.000
   9.5500           297.337       5.839
   9.6000           297.903       5.897
   9.6500           300.192       5.843
   9.7000           302.537       5.796
   9.7500           305.084       5.921
   9.8000           300.531       5.853
   9.8500           306.370       5.886
   9.9000           300.775       5.832
   9.9500           304.609       5.852
  10.0000           293.608       5.719
  10.0500           298.375       5.772
  10.1000           300.173       5.797
  10.1500           303.007       5.839
  10.2000           302.993       5.800
  10.2500           298.411       5.759
  10.3000           289.967       5.666
  10.3500           295.708       5.720
  10.4000           293.730       5.744
  10.4500           294.373       5.801
  10.5000           300.397       5.757
  10.5500           300.856       5.788
  10.6000           300.584       5.734
  10.6500           297.724       5.751
  10.7000           285.921       5.727
  10.7500           290.012       5.686
  10.8000           289.130       5.648
  10.8500           284.151       5.594
  10.9000           283.194       5.597
  10.9500           282.912       5.540
  11.0000           280.793       5.527
  11.0500           289.797       5.617
  11.1000           283.982       5.606
  11.1500           285.366       5.569
  11.2000           289.846       5.614
  11.2500           295.087       5.644
  11.3000           284.158       5.601
  11.3500           280.564       5.534
  11.4000           282.578       5.580
  11.4500           278.047       5.573
  11.5000           290.149       5.701
  11.5500           285.005       5.660
  11.6000           272.352       5.603
  11.6500           281.308       5.588
  11.7000           284.276       5.558
  11.7500           278.241       5.522
  11.8000           274.524       5.519
  11.8500           275.945       5.564
  11.9000           273.120       5.490
  11.9500           278.083       5.549
  12.0000           283.624       5.538
  12.0500           282.053       5.556
  12.1000           272.284       5.569
  12.1500           270.797       5.452
  12.2000           275.161       5.437
  12.2500           275.894       5.441
  12.3000           273.659       5.494
  12.3500           274.741       5.532
  12.4000           267.801       5.429
  12.4500           264.346       5.454
  12.5000           266.877       5.366
  12.5500           274.979       5.409
  12.6000           280.245       5.509
  12.6500           266.851       5.450
  12.7000           269.297       5.520
  12.7500           269.436       5.472
  12.8000           274.641       5.559
  12.8500           270.031       5.482
  12.9000           269.575       5.433
  12.9500           266.899       5.461
  13.0000           267.762       5.434
  13.0500           251.912       5.307
  13.1000           257.412       5.276
  13.1500           251.442       5.227
  13.2000           258.442       5.273
  13.2500           259.758       5.331
  13.3000           264.220       5.430
  13.3500           259.466       5.352
  13.4000           253.353       5.282
  13.4500           260.679       5.341
  13.5000           254.515       5.377
  13.5500           252.429       5.319
  13.6000           255.145       5.355
  13.6500           253.029       5.254
  13.7000           252.558       5.248
  13.7500           260.614       5.326
  13.8000           260.191       5.296
  13.8500           260.819       5.270
  13.9000           258.584       5.254
  13.9500           252.594       5.155
  14.0000           249.955       5.151
  14.0500           255.491       5.262
  14.1000           253.886       5.257
  14.1500           255.368       5.280
  14.2000           260.328       5.222
  14.2500           265.351       5.316
  14.3000           255.782       5.342
  14.3500           256.104       5.337
  14.4000           262.294       5.359
  14.4500           256.737       5.245
  14.5000           260.592       5.362
  14.5500           261.573       5.319
  14.6000           260.333       5.302
  14.6500           258.687       5.212
  14.7000           261.396       5.235
  14.7500           266.394       5.265
  14.8000           262.726       5.272
  14.8500           252.997       5.293
  14.9000           256.361       5.241
  14.9500           259.274       5.280
  15.0000           265.028       5.334
  15.0500           257.506       5.251
  15.1000           260.170       5.267
  15.1500           261.656       5.297
  15.2000           258.559       5.285
  15.2500           255.478       5.233
  15.3000           247.992       5.193
  15.3500           238.936       5.099
  15.4000           247.162       5.169
  15.4500           248.101       5.108
  15.5000           255.282       5.184
  15.5500           253.417       5.175
  15.6000           249.519       5.148
  15.6500           249.683       5.143
  15.7000           249.530       5.123
  15.7500           247.415       5.106
  15.8000           246.976       5.166
  15.8500           250.126       5.112
  15.9000           242.435       5.025
  15.9500           243.056       5.045
  16.0000           244.908       5.115
  16.0500           251.735       5.126
  16.1000           249.879       5.129
  16.1500           244.825       5.086
  16.2000           249.498       5.172
  16.2500           254.483       5.154
  16.3000           249.007       5.187
  16.3500           247.658       5.184
  16.4000           243.608       5.097
  16.4500           244.110       5.101
  16.5000           247.661       5.088
  16.5500           242.770       5.210
  16.6000           242.864       5.057
  16.6500           246.478       5.069
  16.7000           246.339       5.100
  16.7500           241.276       5.063
  16.8000           239.567       5.009
  16.8500           244.501       5.048
  16.9000           249.224       5.155
  16.9500           251.017       5.143
  17.0000           246.320       5.142
  17.0500           242.354       5.064
  17.1000           236.194       4.995
  17.1500           243.644       5.035
  17.2000           246.702       5.089
  17.2500           235.405       4.996
  17.3000           239.830       5.008
  17.3500           237.662       4.987
  17.4000           234.801       4.928
  17.4500           238.839       4.985
  17.5000           238.012       5.008
  17.5500           232.327       4.979
  17.6000           240.201       5.070
  17.6500           238.766       5.018
  17.7000           241.956       5.045
  17.7500           247.131       5.060
  17.8000           245.001       5.176
  17.8500           234.722       5.093
  17.9000           231.840       5.050
  17.9500           234.947       4.955
  18.0000           236.146       5.067
  18.0500           242.094       5.113
  18.1000           242.473       5.097
  18.1500           238.856       5.064
  18.2000           232.916       5.098
  18.2500           235.922       5.094
  18.3000           243.939       5.104
  18.3500           245.407       5.072
  18.4000           244.366       5.077
  18.4500           245.581       5.079
  18.5000           243.521       5.074
  18.5500           241.678       5.031
  18.6000           237.540       5.010
  18.6500           236.389       5.021
  18.7000           241.054       5.035
  18.7500           243.442       5.029
  18.8000           234.267       4.973
  18.8500           244.637       5.151
  18.9000           253.865       5.137
  18.9500           249.458       5.160
  19.0000           259.526       5.291
  19.0500           260.278       5.226
  19.1000           264.431       5.247
  19.1500           248.423       5.136
  19.2000           266.076       5.375
  19.2500           264.178       5.321
  19.3000           266.836       5.312
  19.3500           276.846       5.388
  19.4000           280.192       5.374
  19.4500           292.918       5.507
  19.5000           307.028       5.690
  19.5500           313.962       5.788
  19.6000           331.762       5.853
  19.6500           334.610       5.844
  19.7000           356.822       6.056
  19.7500           380.347       6.315
  19.8000           374.115       6.296
  19.8500           378.916       6.257
  19.9000           372.629       6.225
  19.9500           375.532       6.284
  20.0000           355.173       6.069
  20.0500           342.355       5.924
  20.1000           321.844       5.760
  20.1500           306.679       5.643
  20.2000           306.561       5.606
  20.2500           287.870       5.457
  20.3000           282.858       5.413
  20.3500           270.242       5.295
  20.4000           257.795       5.190
  20.4500           253.524       5.257
  20.5000           248.431       5.137
  20.5500           242.059       5.014
  20.6000           248.964       5.087
  20.6500           241.489       5.084
  20.7000           240.799       5.005
  20.7500           239.255       5.085
  20.8000           240.480       4.997
  20.8500           227.277       4.889
  20.9000           234.520       4.988
  20.9500           234.208       4.955
  21.0000           229.816       4.951
  21.0500           234.032       4.951
  21.1000           236.221       5.029
  21.1500           237.756       4.993
  21.2000           234.530       5.022
  21.2500           236.447       4.962
  21.3000           236.929       4.963
  21.3500           239.017       5.061
  21.4000           240.520       5.018
  21.4500           233.845       4.967
  21.5000           229.105       4.929
  21.5500           239.467       4.940
  21.6000           235.851       4.952
  21.6500           228.549       4.862
  21.7000           238.985       5.081
  21.7500           239.397       5.071
  21.8000           244.820       5.020
  21.8500           252.900       5.177
  21.9000           257.869       5.204
  21.9500           265.857       5.236
  22.0000           265.915       5.280
  22.0500           271.956       5.311
  22.1000           287.725       5.452
  22.1500           301.248       5.574
  22.2000           310.120       5.650
  22.2500           331.282       5.830
  22.3000           343.126       5.923
  22.3500           364.839       6.091
  22.4000           387.142       6.277
  22.4500           423.195       6.605
  22.5000           470.664       6.925
  22.5500           518.908       7.263
  22.6000           576.510       7.658
  22.6500           644.208       8.097
  22.7000           718.138       8.543
  22.7500           808.617       9.044
  22.8000           915.190       9.621
  22.8500           997.432      10.045
  22.9000          1050.514      10.311
  22.9500          1050.023      10.304
  23.0000          1029.254      10.206
  23.0500           978.769       9.951
  23.1000           895.076       9.527
  23.1500           807.537       9.059
  23.2000           744.096       8.717
  23.2500           656.078       8.156
  23.3000           562.273       7.556
  23.3500           502.632       7.156
  23.4000           440.591       6.732
  23.4500           389.256       6.310
  23.5000           358.546       6.035
  23.5500           319.974       5.780
  23.6000           289.357       5.505
  23.6500           276.600       5.419
  23.7000           265.277       5.258
  23.7500           246.787       5.097
  23.8000           237.698       5.019
  23.8500           221.806       4.813
  23.9000           221.766       4.839
  23.9500           226.028       4.821
  24.0000           217.709       4.781
  24.0500           220.509       4.777
  24.1000           220.427       4.788
  24.1500           225.381       4.882
  24.2000           215.679       4.773
  24.2500           220.456       4.824
  24.3000           219.600       4.897
  24.3500           215.456       4.792
  24.4000           222.050       4.824
  24.4500           215.531       4.875
  24.5000           218.336       4.807
  24.5500           227.503       4.935
  24.6000           226.320       4.929
  24.6500           214.674       4.808
  24.7000           207.884       4.725
  24.7500           218.014       4.774
  24.8000           218.106       4.871
  24.8500           219.707       4.823
  24.9000           221.872       4.870
  24.9500           213.969       4.751
  25.0000           215.127       4.832
  25.0500           217.027       4.828
  25.1000           214.130       4.814
  25.1500           215.933       4.806
  25.2000           216.420       4.896
  25.2500           217.083       4.822
  25.3000           213.675       4.738
  25.3500           217.642       4.913
  25.4000           217.456       4.817
  25.4500           216.875       4.812
  25.5000           213.621       4.824
  25.5500           205.653       4.779
  25.6000           216.016       4.781
  25.6500           218.185       4.794
  25.7000           221.112       4.746
  25.7500           215.453       4.759
  25.8000           215.019       4.748
  25.8500           221.814       4.846
  25.9000           216.213       4.785
  25.9500           220.361       4.858
  26.0000           214.225       4.746
  26.0500           215.179       4.820
  26.1000           212.623       4.871
  26.1500           211.882       4.832
  26.2000           215.328       4.804
  26.2500           208.535       4.692
  26.3000           225.811       4.852
  26.3500           215.755       4.763
  26.4000           213.671       4.771
  26.4500           215.689       4.807
  26.5000           211.814       4.759
  26.5500           206.103       4.742
  26.6000           213.267       4.723
  26.6500           212.423       4.880
  26.7000           220.763       4.981
  26.7500           218.167       4.907
  26.8000           217.247       4.764
  26.8500           216.163       4.796
  26.9000           208.386       4.680
  26.9500           209.185       4.700
  27.0000           222.428       4.829
  27.0500           222.326       4.815
  27.1000           209.433       4.756
  27.1500           207.039       4.676
  27.2000           212.446       4.744
  27.2500           219.190       4.791
  27.3000           217.670       4.817
  27.3500           209.143       4.801
  27.4000           215.634       4.883
  27.4500           214.034       4.727
  27.5000           213.468       4.782
  27.5500           212.902       4.759
  27.6000           213.861       4.743
  27.6500           215.857       4.726
  27.7000           208.385       4.700
  27.7500           210.597       4.694
  27.8000           216.714       4.792
  27.8500           213.326       4.728
  27.9000           208.972       4.696
  27.9500           216.247       4.767
  28.0000           217.642       4.745
  28.0500           222.809       4.812
  28.1000           219.261       4.782
  28.1500           208.415       4.647
  28.2000           208.358       4.694
  28.2500           221.138       4.859
  28.3000           214.397       4.749
  28.3500           223.392       4.860
  28.4000           209.840       4.687
  28.4500           215.121       4.746
  28.5000           207.761       4.711
  28.5500           215.022       4.734
  28.6000           216.643       4.743
  28.6500           215.804       4.868
  28.7000           217.372       4.772
  28.7500           211.583       4.673
  28.8000           209.768       4.726
  28.8500           211.018       4.703
  28.9000           210.192       4.635
  28.9500           212.403       4.741
  29.0000           207.033       4.641
  29.0500           211.239       4.741
  29.1000           211.013       4.694
  29.1500           210.695       4.775
  29.2000           210.472       4.739
  29.2500           215.948       4.758
  29.3000           212.268       4.684
  29.3500           206.131       4.584
  29.4000           208.557       4.685
  29.4500           213.641       4.678
  29.5000           223.491       4.821
  29.5500           221.655       4.786
  29.6000           215.483       4.749
  29.6500           223.218       4.754
  29.7000           220.074       4.725
  29.7500           222.422       4.746
  29.8000           214.416       4.716
  29.8500           224.085       4.775
  29.9000           226.226       4.783
  29.9500           221.566       4.756
  30.0000           211.570       4.690
  30.0500           217.443       4.754
  30.1000           214.572       4.727
  30.1500           212.448       4.837
  30.2000           219.531       4.790
  30.2500           223.579       4.856
  30.3000           216.599       4.745
  30.3500           212.555       4.686
  30.4000           208.827       4.677
  30.4500           215.133       4.719
  30.5000           212.802       4.735
  30.5500           220.283       4.759
  30.6000           215.904       4.708
  30.6500           206.405       4.599
  30.7000           210.490       4.702
  30.7500           215.844       4.774
  30.8000           209.877       4.728
  30.8500           213.388       4.685
  30.9000           211.710       4.700
  30.9500           207.964       4.646
  31.0000           214.441       4.726
  31.0500           215.320       4.772
  31.1000           224.400       4.803
  31.1500           215.997       4.736
  31.2000           212.286       4.690
  31.2500           217.732       4.785
  31.3000           210.116       4.733
  31.3500           214.695       4.706
  31.4000           224.330       4.814
  31.4500           224.605       4.803
  31.5000           221.618       4.757
  31.5500           233.882       4.959
  31.6000           233.794       4.865
  31.6500           241.022       4.927
  31.7000           243.995       5.019
  31.7500           244.605       5.035
  31.8000           249.889       5.057
  31.8500           267.774       5.272
  31.9000           301.163       5.539
  31.9500           310.804       5.630
  32.0000           341.951       5.888
  32.0500           382.297       6.211
  32.1000           431.090       6.619
  32.1500           501.206       7.133
  32.2000           582.841       7.674
  32.2500           702.987       8.451
  32.3000           835.734       9.171
  32.3500          1041.820      10.239
  32.4000          1252.629      11.224
  32.4500          1514.717      12.343
  32.5000          1754.456      13.282
  32.5500          1970.531      14.079
  32.6000          2064.684      14.411
  32.6500          2116.136      14.589
  32.7000          2034.093      14.303
  32.7500          1881.087      13.755
  32.8000          1661.907      12.928
  32.8500          1420.700      11.953
  32.9000          1189.357      10.940
  32.9500           991.101       9.985
  33.0000           787.136       8.901
  33.0500           646.229       8.067
  33.1000           533.476       7.348
  33.1500           443.255       6.695
  33.2000           363.022       6.083
  33.2500           326.699       5.742
  33.3000           294.483       5.479
  33.3500           270.724       5.268
  33.4000           255.188       5.198
  33.4500           237.575       4.980
  33.5000           230.679       4.917
  33.5500           223.536       4.805
  33.6000           219.367       4.753
  33.6500           226.885       4.787
  33.7000           225.914       4.852
  33.7500           221.538       4.747
  33.8000           215.617       4.700
  33.8500           220.694       4.747
  33.9000           218.181       4.740
  33.9500           213.777       4.742
  34.0000           208.176       4.732
  34.0500           213.157       4.718
  34.1000           214.544       4.697
  34.1500           221.311       4.732
  34.2000           212.999       4.640
  34.2500           216.208       4.661
  34.3000           218.114       4.698
  34.3500           214.859       4.705
  34.4000           212.901       4.671
  34.4500           218.064       4.760
  34.5000           216.705       4.695
  34.5500           208.123       4.685
  34.6000           202.972       4.609
  34.6500           216.827       4.790
  34.7000           215.201       4.697
  34.7500           208.729       4.676
  34.8000           201.839       4.563
  34.8500           205.198       4.724
  34.9000           211.835       4.769
  34.9500           209.474       4.732
  35.0000           210.107       4.708
  35.0500           210.244       4.727
  35.1000           207.812       4.642
  35.1500           208.814       4.734
  35.2000           205.721       4.700
  35.2500           212.380       4.752
  35.3000           210.938       4.753
  35.3500           204.637       4.637
  35.4000           219.034       4.780
  35.4500           211.504       4.778
  35.5000           216.252       4.760
  35.5500           209.307       4.763
  35.6000           216.128       4.821
  35.6500           209.635       4.760
  35.7000           209.565       4.689
  35.7500           210.921       4.684
  35.8000           208.970       4.695
  35.8500           216.364       4.771
  35.9000           219.500       4.791
  35.9500           211.366       4.665
  36.0000           211.476       4.609
  36.0500           210.391       4.628
  36.1000           204.499       4.694
  36.1500           207.343       4.809
  36.2000           219.943       4.797
  36.2500           209.239       4.808
  36.3000           216.417       4.781
  36.3500           219.965       4.749
  36.4000           218.485       4.924
  36.4500           228.971       4.877
  36.5000           223.853       4.867
  36.5500           224.029       4.881
  36.6000           233.682       4.931
  36.6500           226.696       4.942
  36.7000           222.177       4.912
  36.7500           213.487       4.825
  36.8000           215.852       4.756
  36.8500           224.376       4.896
  36.9000           215.114       4.824
  36.9500           222.509       4.890
  37.0000           227.330       4.821
  37.0500           220.366       4.763
  37.1000           219.430       4.713
  37.1500           216.763       4.699
  37.2000           216.880       4.730
  37.2500           218.898       4.748
  37.3000           209.867       4.740
  37.3500           223.770       4.863
  37.4000           222.902       4.757
  37.4500           225.356       4.794
  37.5000           223.219       4.816
  37.5500           224.499       4.761
  37.6000           220.668       4.818
  37.6500           225.056       4.809
  37.7000           227.494       4.801
  37.7500           239.353       5.007
  37.8000           245.231       5.023
  37.8500           252.178       5.189
  37.9000           276.215       5.292
  37.9500           304.622       5.621
  38.0000           337.045       5.822
  38.0500           367.350       6.097
  38.1000           418.621       6.486
  38.1500           489.215       7.019
  38.2000           583.947       7.688
  38.2500           682.765       8.279
  38.3000           780.511       8.851
  38.3500           889.498       9.449
  38.4000           959.657       9.816
  38.4500           994.060       9.991
  38.5000           971.070       9.876
  38.5500           934.538       9.688
  38.6000           856.688       9.274
  38.6500           757.594       8.721
  38.7000           662.531       8.155
  38.7500           548.638       7.420
  38.8000           476.472       6.919
  38.8500           407.997       6.416
  38.9000           339.689       5.871
  38.9500           315.780       5.644
  39.0000           287.259       5.404
  39.0500           268.151       5.218
  39.1000           255.244       5.091
  39.1500           248.956       5.045
  39.2000           241.262       4.990
  39.2500           244.563       4.979
  39.3000           247.579       5.038
  39.3500           242.394       4.957
  39.4000           241.390       5.011
  39.4500           248.269       5.094
  39.5000           264.404       5.193
  39.5500           276.178       5.332
  39.6000           294.264       5.479
  39.6500           323.862       5.766
  39.7000           364.907       6.124
  39.7500           424.575       6.544
  39.8000           503.905       7.116
  39.8500           598.591       7.752
  39.9000           759.162       8.727
  39.9500           974.984       9.889
  40.0000          1204.764      10.995
  40.0500          1469.551      12.143
  40.1000          1710.276      13.102
  40.1500          1919.015      13.879
  40.2000          2057.525      14.372
  40.2500          2109.725      14.554
  40.3000          1998.608      14.167
  40.3500          1819.176      13.514
  40.4000          1591.536      12.639
  40.4500          1329.926      11.548
  40.5000          1073.430      10.377
  40.5500           864.044       9.311
  40.6000           675.323       8.241
  40.6500           532.031       7.376
  40.7000           429.236       6.564
  40.7500           355.666       5.996
  40.8000           306.042       5.563
  40.8500           281.114       5.320
  40.9000           258.188       5.116
  40.9500           235.966       4.902
  41.0000           231.101       4.845
  41.0500           225.955       4.801
  41.1000           212.641       4.634
  41.1500           221.078       4.728
  41.2000           219.467       4.702
  41.2500           217.057       4.727
  41.3000           216.852       4.682
  41.3500           217.221       4.729
  41.4000           211.360       4.658
  41.4500           211.416       4.695
  41.5000           210.145       4.638
  41.5500           212.965       4.769
  41.6000           213.870       4.709
  41.6500           218.473       4.740
  41.7000           216.159       4.767
  41.7500           211.075       4.672
  41.8000           218.071       4.731
  41.8500           216.935       4.777
  41.9000           211.037       4.724
  41.9500           220.290       4.786
  42.0000           217.247       4.742
  42.0500           206.390       4.652
  42.1000           200.810       4.580
  42.1500           205.204       4.661
  42.2000           203.291       4.612
  42.2500           208.114       4.711
  42.3000           210.178       4.721
  42.3500           205.415       4.691
  42.4000           210.376       4.670
  42.4500           213.287       4.684
  42.5000           215.300       4.786
  42.5500           213.376       4.751
  42.6000           208.424       4.657
  42.6500           210.647       4.706
  42.7000           216.350       4.752
  42.7500           218.966       4.730
  42.8000           213.542       4.770
  42.8500           210.971       4.659
  42.9000           208.584       4.634
  42.9500           215.376       4.695
  43.0000           206.670       4.680
  43.0500           207.525       4.732
  43.1000           213.420       4.718
  43.1500           214.365       4.709
  43.2000           209.514       4.751
  43.2500           208.249       4.677
  43.3000           214.380       4.682
  43.3500           220.864       4.798
  43.4000           230.187       4.863
  43.4500           222.782       4.882
  43.5000           230.334       4.843
  43.5500           228.529       4.821
  43.6000           230.115       4.858
  43.6500           233.237       4.887
  43.7000           231.625       4.888
  43.7500           227.979       4.884
  43.8000           222.009       4.827
  43.8500           222.776       4.787
  43.9000           225.546       4.829
  43.9500           221.991       4.820
  44.0000           219.668       4.735
  44.0500           209.989       4.745
  44.1000           211.192       4.702
  44.1500           212.693       4.656
  44.2000           216.594       4.753
  44.2500           205.580       4.646
  44.3000           206.509       4.586
  44.3500           219.013       4.717
  44.4000           219.477       4.708
  44.4500           222.879       4.808
  44.5000           226.713       4.786
  44.5500           229.180       4.850
  44.6000           230.950       4.859
  44.6500           235.086       4.930
  44.7000           238.607       4.975
  44.7500           238.693       4.940
  44.8000           233.869       4.903
  44.8500           241.816       4.977
  44.9000           239.212       4.921
  44.9500           232.365       4.871
  45.0000           234.180       4.907
  45.0500           232.339       4.918
  45.1000           234.072       4.919
  45.1500           232.864       4.852
  45.2000           233.769       4.869
  45.2500           228.860       4.816
  45.3000           225.953       4.931
  45.3500           234.887       4.911
  45.4000           243.355       4.964
  45.4500           242.560       4.966
  45.5000           235.912       4.925
  45.5500           246.641       5.007
  45.6000           238.966       4.950
  45.6500           231.631       4.957
  45.7000           243.184       5.026
  45.7500           251.340       5.030
  45.8000           259.377       5.142
  45.8500           261.387       5.188
  45.9000           260.420       5.155
  45.9500           264.603       5.203
  46.0000           274.869       5.290
  46.0500           308.185       5.557
  46.1000           350.789       5.941
  46.1500           392.120       6.300
  46.2000           445.757       6.714
  46.2500           556.048       7.468
  46.3000           702.399       8.392
  46.3500           905.559       9.528
  46.4000          1210.780      11.010
  46.4500          1643.608      12.829
  46.5000          2180.673      14.778
  46.5500          2861.568      16.928
  46.6000          3594.688      18.981
  46.6500          4266.044      20.683
  46.7000          4789.313      21.918
  46.7500          5086.551      22.592
  46.8000          5030.759      22.469
  46.8500          4760.190      21.856
  46.9000          4275.783      20.706
  46.9500          3634.261      19.089
  47.0000          2979.441      17.277
  47.0500          2318.665      15.238
  47.1000          1786.970      13.376
  47.1500          1336.877      11.568
  47.2000           983.749       9.925
  47.2500           732.966       8.582
  47.3000           555.235       7.466
  47.3500           438.179       6.626
  47.4000           372.274       6.122
  47.4500           309.840       5.610
  47.5000           281.777       5.346
  47.5500           260.436       5.189
  47.6000           248.196       5.045
  47.6500           237.604       4.927
  47.7000           228.356       4.849
  47.7500           220.843       4.757
  47.8000           215.381       4.747
  47.8500           216.213       4.737
  47.9000           212.017       4.722
  47.9500           212.295       4.684
  48.0000           214.159       4.721
  48.0500           209.991       4.790
  48.1000           216.025       4.717
  48.1500           209.676       4.667
  48.2000           206.119       4.591
  48.2500           211.811       4.756
  48.3000           209.486       4.706
  48.3500           205.977       4.618
  48.4000           196.540       4.516
  48.4500           197.679       4.585
  48.5000           197.618       4.572
  48.5500           206.417       4.610
  48.6000           202.682       4.599
  48.6500           206.263       4.660
  48.7000           209.319       4.614
  48.7500           207.150       4.587
  48.8000           206.576       4.657
  48.8500           203.612       4.695
  48.9000           208.224       4.679
  48.9500           208.312       4.604
  49.0000           200.188       4.534
  49.0500           197.149       4.574
  49.1000           193.345       4.510
  49.1500           199.696       4.573
  49.2000           198.891       4.641
  49.2500           185.743       4.521
  49.3000           190.938       4.437
  49.3500           196.317       4.522
  49.4000           198.637       4.574
  49.4500           197.205       4.548
  49.5000           197.961       4.682
  49.5500           191.649       4.555
  49.6000           196.429       4.567
  49.6500           196.097       4.478
  49.7000           204.017       4.559
  49.7500           201.095       4.553
  49.8000           198.949       4.488
  49.8500           200.061       4.586
  49.9000           199.803       4.593
  49.9500           202.503       4.655
  50.0000           200.503       4.552
  50.0500           198.926       4.587
  50.1000           196.010       4.594
  50.1500           200.957       4.559
  50.2000           203.453       4.584
  50.2500           201.542       4.614
  50.3000           199.535       4.545
  50.3500           200.973       4.546
  50.4000           205.166       4.629
  50.4500           202.964       4.588
  50.5000           195.771       4.552
  50.5500           196.850       4.507
  50.6000           202.104       4.617
  50.6500           215.931       4.733
  50.7000           225.359       4.955
  50.7500           236.074       4.983
  50.8000           249.034       5.110
  50.8500           289.081       5.387
  50.9000           329.894       5.750
  50.9500           374.981       6.128
  51.0000           439.847       6.667
  51.0500           531.034       7.299
  51.1000           606.671       7.797
  51.1500           660.316       8.135
  51.2000           708.028       8.448
  51.2500           711.170       8.471
  51.3000           711.128       8.492
  51.3500           658.805       8.134
  51.4000           608.892       7.811
  51.4500           531.217       7.292
  51.5000           449.816       6.716
  51.5500           384.504       6.237
  51.6000           329.243       5.790
  51.6500           286.987       5.363
  51.7000           261.363       5.173
  51.7500           242.225       4.982
  51.8000           231.249       4.882
  51.8500           226.003       4.874
  51.9000           219.552       4.857
  51.9500           224.767       4.760
  52.0000           223.222       4.822
  52.0500           226.412       4.893
  52.1000           227.776       4.791
  52.1500           247.361       5.001
  52.2000           264.766       5.157
  52.2500           285.973       5.389
  52.3000           324.506       5.727
  52.3500           404.217       6.359
  52.4000           483.142       6.957
  52.4500           596.672       7.725
  52.5000           741.863       8.618
  52.5500           882.875       9.405
  52.6000          1020.445      10.112
  52.6500          1101.785      10.514
  52.7000          1143.683      10.733
  52.7500          1111.619      10.557
  52.8000          1032.739      10.179
  52.8500           918.988       9.595
  52.9000           751.849       8.686
  52.9500           619.182       7.880
  53.0000           501.896       7.127
  53.0500           412.631       6.462
  53.1000           342.854       5.866
  53.1500           292.607       5.477
  53.2000           260.403       5.152
  53.2500           237.173       4.897
  53.3000           230.141       4.823
  53.3500           217.052       4.703
  53.4000           215.873       4.712
  53.4500           214.207       4.709
  53.5000           202.470       4.513
  53.5500           195.767       4.471
  53.6000           203.210       4.547
  53.6500           198.890       4.489
  53.7000           194.179       4.417
  53.7500           195.631       4.454
  53.8000           198.087       4.492
  53.8500           194.006       4.463
  53.9000           191.512       4.388
  53.9500           193.700       4.447
  54.0000           201.534       4.564
  54.0500           199.707       4.545
  54.1000           184.784       4.446
  54.1500           197.271       4.516
  54.2000           198.700       4.537
  54.2500           201.820       4.584
  54.3000           209.128       4.639
  54.3500           215.766       4.765
  54.4000           227.241       4.863
  54.4500           233.957       4.913
  54.5000           244.029       5.009
  54.5500           244.852       4.998
  54.6000           243.097       4.953
  54.6500           240.859       4.916
  54.7000           233.382       4.864
  54.7500           225.417       4.809
  54.8000           213.667       4.684
  54.8500           211.287       4.633
  54.9000           202.436       4.515
  54.9500           198.610       4.481
  55.0000           197.016       4.533
  55.0500           191.342       4.409
  55.1000           192.196       4.426
  55.1500           185.844       4.375
  55.2000           182.578       4.373
  55.2500           190.069       4.414
  55.3000           188.588       4.439
  55.3500           193.651       4.491
  55.4000           181.388       4.477
  55.4500           191.189       4.495
  55.5000           191.678       4.516
  55.5500           189.018       4.453
  55.6000           182.923       4.384
  55.6500           193.488       4.450
  55.7000           188.797       4.436
  55.7500           185.806       4.385
  55.8000           187.398       4.417
  55.8500           195.059       4.520
  55.9000           189.265       4.446
  55.9500           186.726       4.427
  56.0000           187.635       4.366
  56.0500           186.532       4.426
  56.1000           182.867       4.332
  56.1500           186.209       4.383
  56.2000           192.205       4.466
  56.2500           193.895       4.414
  56.3000           197.851       4.519
  56.3500           193.466       4.452
  56.4000           187.094       4.442
  56.4500           196.595       4.510
  56.5000           194.832       4.461
  56.5500           191.949       4.431
  56.6000           190.450       4.453
  56.6500           189.710       4.457
  56.7000           203.784       4.605
  56.7500           189.342       4.584
  56.8000           185.027       4.477
  56.8500           197.520       4.451
  56.9000           205.303       4.576
  56.9500           203.815       4.534
  57.0000           196.727       4.520
  57.0500           201.401       4.524
  57.1000           200.387       4.486
  57.1500           203.099       4.523
  57.2000           209.409       4.646
  57.2500           208.343       4.622
  57.3000           215.887       4.705
  57.3500           220.113       4.718
  57.4000           222.739       4.778
  57.4500           218.377       4.713
  57.5000           222.555       4.797
  57.5500           247.448       5.007
  57.6000           270.428       5.225
  57.6500           290.369       5.428
  57.7000           343.950       5.867
  57.7500           426.851       6.536
  57.8000           534.053       7.307
  57.8500           723.083       8.503
  57.9000           950.695       9.747
  57.9500          1240.364      11.140
  58.0000          1571.397      12.540
  58.0500          1870.874      13.690
  58.1000          2105.999      14.528
  58.1500          2234.584      14.966
  58.2000          2222.167      14.925
  58.2500          2079.879      14.437
  58.3000          1833.532      13.553
  58.3500          1517.002      12.324
  58.4000          1223.130      11.062
  58.4500           963.841       9.817
  58.5000           732.903       8.566
  58.5500           566.850       7.534
  58.6000           436.746       6.615
  58.6500           352.028       5.974
  58.7000           299.428       5.483
  58.7500           267.412       5.205
  58.8000           243.838       5.031
  58.8500           233.503       4.918
  58.9000           221.922       4.760
  58.9500           212.588       4.633
  59.0000           209.433       4.684
  59.0500           207.839       4.599
  59.1000           206.252       4.605
  59.1500           199.213       4.516
  59.2000           200.150       4.522
  59.2500           197.362       4.476
  59.3000           198.111       4.533
  59.3500           198.527       4.501
  59.4000           195.483       4.520
  59.4500           195.605       4.492
  59.5000           198.488       4.521
  59.5500           196.347       4.463
  59.6000           194.252       4.438
  59.6500           195.575       4.473
  59.7000           199.148       4.497
  59.7500           195.573       4.447
  59.8000           202.924       4.522
  59.8500           210.288       4.632
  59.9000           206.302       4.579
  59.9500           204.495       4.534
  60.0000           203.763       4.554
  60.0500           195.769       4.460
  60.1000           189.944       4.428
  60.1500           199.603       4.533
  60.2000           197.766       4.534
  60.2500           194.678       4.450
  60.3000           199.999       4.518
  60.3500           196.071       4.607
  60.4000           197.554       4.557
  60.4500           199.095       4.485
  60.5000           206.495       4.582
  60.5500           205.281       4.569
  60.6000           202.627       4.544
  60.6500           211.258       4.646
  60.7000           202.720       4.573
  60.7500           206.899       4.567
  60.8000           208.069       4.608
  60.8500           205.101       4.564
  60.9000           205.960       4.570
  60.9500           212.096       4.643
  61.0000           205.968       4.553
  61.0500           200.445       4.493
  61.1000           199.917       4.518
  61.1500           198.583       4.564
  61.2000           195.221       4.464
  61.2500           196.958       4.550
  61.3000           197.266       4.548
  61.3500           200.550       4.519
  61.4000           196.460       4.448
  61.4500           204.168       4.554
  61.5000           200.606       4.535
  61.5500           194.540       4.459
  61.6000           202.062       4.575
  61.6500           219.372       4.774
  61.7000           233.038       4.879
  61.7500           258.413       5.103
  61.8000           269.308       5.246
  61.8500           310.131       5.594
  61.9000           355.803       5.975
  61.9500           382.501       6.224
  62.0000           426.577       6.540
  62.0500           447.769       6.720
  62.1000           455.273       6.754
  62.1500           441.923       6.660
  62.2000           428.694       6.552
  62.2500           400.032       6.327
  62.3000           350.748       5.952
  62.3500           306.355       5.570
  62.4000           286.178       5.376
  62.4500           260.416       5.110
  62.5000           233.200       4.840
  62.5500           220.360       4.730
  62.6000           209.620       4.632
  62.6500           210.319       4.599
  62.7000           202.089       4.542
  62.7500           196.435       4.461
  62.8000           194.957       4.487
  62.8500           196.965       4.527
  62.9000           194.401       4.502
  62.9500           193.365       4.545
  63.0000           199.500       4.601
  63.0500           204.010       4.653
  63.1000           199.237       4.564
  63.1500           197.400       4.540
  63.2000           195.806       4.500
  63.2500           207.058       4.674
  63.3000           203.262       4.531
  63.3500           210.519       4.615
  63.4000           203.730       4.571
  63.4500           204.539       4.606
  63.5000           202.809       4.658
  63.5500           205.791       4.679
  63.6000           201.355       4.596
  63.6500           196.858       4.519
  63.7000           198.445       4.660
  63.7500           197.005       4.581
  63.8000           200.889       4.583
  63.8500           192.049       4.573
  63.9000           194.874       4.549
  63.9500           194.421       4.537
  64.0000           194.459       4.541
  64.0500           197.852       4.549
  64.1000           204.711       4.622
  64.1500           208.542       4.682
  64.2000           203.676       4.600
  64.2500           199.976       4.523
  64.3000           196.819       4.493
  64.3500           193.183       4.502
  64.4000           202.809       4.561
  64.4500           198.727       4.653
  64.5000           205.121       4.632
  64.5500           198.553       4.542
  64.6000           200.067       4.594
  64.6500           203.525       4.571
  64.7000           212.154       4.634
  64.7500           213.654       4.652
  64.8000           218.820       4.710
  64.8500           220.466       4.711
  64.9000           225.316       4.802
  64.9500           223.015       4.783
  65.0000           225.442       4.847
  65.0500           225.284       4.856
  65.1000           223.198       4.838
  65.1500           213.236       4.795
  65.2000           205.913       4.728
  65.2500           203.870       4.603
  65.3000           203.116       4.661
  65.3500           208.134       4.688
  65.4000           198.034       4.574
  65.4500           191.125       4.457
  65.5000           195.840       4.566
  65.5500           201.883       4.667
  65.6000           199.120       4.586
  65.6500           212.508       4.690
  65.7000           205.825       4.670
  65.7500           203.520       4.607
  65.8000           212.471       4.651
  65.8500           203.356       4.538
  65.9000           202.055       4.576
  65.9500           211.580       4.620
  66.0000           214.395       4.706
  66.0500           203.711       4.595
  66.1000           195.610       4.481
  66.1500           197.389       4.495
  66.2000           201.509       4.527
  66.2500           206.019       4.562
  66.3000           201.323       4.532
  66.3500           204.525       4.576
  66.4000           210.866       4.662
  66.4500           209.526       4.805
  66.5000           208.813       4.849
  66.5500           213.637       4.845
  66.6000           218.950       4.812
  66.6500           215.208       4.815
  66.7000           218.836       4.805
  66.7500           219.762       4.764
  66.8000           214.851       4.777
  66.8500           218.609       4.718
  66.9000           215.946       4.815
  66.9500           230.931       4.878
  67.0000           227.093       4.858
  67.0500           231.003       4.829
  67.1000           232.736       4.896
  67.1500           233.416       4.910
  67.2000           239.550       4.958
  67.2500           243.951       5.009
  67.3000           238.859       5.009
  67.3500           237.951       5.008
  67.4000           253.589       5.100
  67.4500           258.088       5.189
  67.5000           259.237       5.152
  67.5500           279.343       5.330
  67.6000           297.020       5.529
  67.6500           305.615       5.636
  67.7000           335.402       5.828
  67.7500           411.587       6.414
  67.8000           502.430       7.097
  67.8500           651.802       8.162
  67.9000           885.607       9.406
  67.9500          1208.409      10.987
  68.0000          1643.272      12.815
  68.0500          2164.903      14.713
  68.1000          2788.185      16.700
  68.1500          3531.275      18.797
  68.2000          4306.096      20.767
  68.2500          4861.329      22.068
  68.3000          5211.779      22.850
  68.3500          5093.529      22.591
  68.4000          4569.269      21.392
  68.4500          3826.998      19.572
  68.5000          3015.407      17.361
  68.5500          2276.020      15.079
  68.6000          1645.171      12.815
  68.6500          1195.012      10.921
  68.7000           851.421       9.220
  68.7500           640.294       7.995
  68.8000           490.696       7.005
  68.8500           409.060       6.416
  68.9000           355.114       5.963
  68.9500           319.009       5.685
  69.0000           305.700       5.545
  69.0500           281.405       5.359
  69.1000           265.784       5.221
  69.1500           243.336       4.957
  69.2000           245.462       5.006
  69.2500           235.364       4.879
  69.3000           231.963       4.839
  69.3500           227.509       4.842
  69.4000           221.195       4.769
  69.4500           214.983       4.794
  69.5000           220.672       4.764
  69.5500           211.736       4.694
  69.6000           209.788       4.613
  69.6500           219.629       4.695
  69.7000           214.368       4.655
  69.7500           215.469       4.696
  69.8000           219.635       4.758
  69.8500           215.622       4.776
  69.9000           216.911       4.759
  69.9500           204.732       4.701
  70.0000           204.880       4.595
  70.0500           199.029       4.488
  70.1000           206.790       4.573
  70.1500           203.944       4.589
  70.2000           207.721       4.617
  70.2500           208.595       4.622
  70.3000           205.000       4.659
  70.3500           208.081       4.615
  70.4000           216.531       4.707
  70.4500           211.573       4.662
  70.5000           211.155       4.641
  70.5500           218.165       4.737
  70.6000           213.918       4.674
  70.6500           222.895       4.748
  70.7000           220.463       4.748
  70.7500           225.748       4.787
  70.8000           214.053       4.735
  70.8500           208.615       4.679
  70.9000           211.834       4.656
  70.9500           218.432       4.710
  71.0000           216.799       4.708
  71.0500           214.840       4.644
  71.1000           216.959       4.672
  71.1500           215.938       4.656
  71.2000           224.101       4.745
  71.2500           225.806       4.824
  71.3000           235.361       4.969
  71.3500           241.183       4.988
  71.4000           260.473       5.181
  71.4500           292.880       5.451
  71.5000           323.749       5.712
  71.5500           393.708       6.291
  71.6000           481.333       6.940
  71.6500           576.998       7.622
  71.7000           690.256       8.313
  71.7500           814.253       9.027
  71.8000           926.391       9.632
  71.8500           989.684       9.957
  71.9000          1042.277      10.218
  71.9500          1028.596      10.148
  72.0000           948.898       9.747
  72.0500           840.190       9.170
  72.1000           716.848       8.468
  72.1500           598.394       7.736
  72.2000           483.922       6.967
  72.2500           405.972       6.380
  72.3000           343.373       5.878
  72.3500           300.153       5.550
  72.4000           272.280       5.294
  72.4500           260.886       5.156
  72.5000           248.733       5.018
  72.5500           246.287       5.011
  72.6000           277.383       5.290
  72.6500           308.065       5.657
  72.7000           347.767       5.927
  72.7500           409.490       6.405
  72.8000           485.651       6.971
  72.8500           566.287       7.530
  72.9000           642.327       8.018
  72.9500           721.308       8.499
  73.0000           766.745       8.762
  73.0500           785.629       8.870
  73.1000           787.820       8.883
  73.1500           753.025       8.684
  73.2000           668.018       8.175
  73.2500           578.535       7.654
  73.3000           483.235       6.959
  73.3500           400.683       6.342
  73.4000           332.338       5.820
  73.4500           288.884       5.499
  73.5000           262.162       5.197
  73.5500           243.200       5.012
  73.6000           237.548       4.894
  73.6500           221.497       4.740
  73.7000           207.523       4.670
  73.7500           205.918       4.588
  73.8000           210.778       4.667
  73.8500           209.740       4.671
  73.9000           198.388       4.640
  73.9500           193.566       4.559
  74.0000           201.826       4.509
  74.0500           198.927       4.550
  74.1000           195.799       4.494
  74.1500           206.225       4.561
  74.2000           206.249       4.683
  74.2500           200.314       4.640
  74.3000           203.294       4.580
  74.3500           207.542       4.596
  74.4000           206.445       4.612
  74.4500           203.433       4.580
  74.5000           199.781       4.539
  74.5500           195.930       4.488
  74.6000           202.658       4.562
  74.6500           200.067       4.513
  74.7000           198.330       4.492
  74.7500           195.258       4.492
  74.8000           203.793       4.576
  74.8500           206.040       4.670
  74.9000           195.357       4.515
  74.9500           205.277       4.602
  75.0000           211.034       4.630
  75.0500           204.995       4.576
  75.1000           211.778       4.677
  75.1500           211.945       4.635
  75.2000           219.048       4.688
  75.2500           217.833       4.704
  75.3000           222.384       4.740
  75.3500           236.720       4.908
  75.4000           228.989       4.820
  75.4500           224.755       4.765
  75.5000           220.258       4.801
  75.5500           210.751       4.695
  75.6000           216.385       4.722
  75.6500           210.594       4.684
  75.7000           204.860       4.597
  75.7500           198.840       4.594
  75.8000           205.415       4.618
  75.8500           203.890       4.596
  75.9000           203.803       4.560
  75.9500           206.497       4.617
  76.0000           206.546       4.592
  76.0500           205.070       4.618
  76.1000           201.320       4.522
  76.1500           203.006       4.630
  76.2000           213.764       4.667
  76.2500           205.118       4.638
  76.3000           200.737       4.574
  76.3500           211.036       4.636
  76.4000           201.907       4.546
  76.4500           207.760       4.644
  76.5000           203.172       4.576
  76.5500           201.689       4.570
  76.6000           205.755       4.662
  76.6500           204.074       4.652
  76.7000           200.465       4.626
  76.7500           211.850       4.652
  76.8000           209.813       4.636
  76.8500           217.103       4.683
  76.9000           209.874       4.621
  76.9500           217.844       4.718
  77.0000           219.949       4.708
  77.0500           219.033       4.678
  77.1000           227.748       4.808
  77.1500           230.731       4.821
  77.2000           245.451       4.953
  77.2500           273.955       5.238
  77.3000           295.108       5.434
  77.3500           339.206       5.837
  77.4000           422.400       6.506
  77.4500           529.195       7.289
  77.5000           655.002       8.095
  77.5500           793.708       8.911
  77.6000           934.299       9.672
  77.6500          1018.141      10.098
  77.7000          1070.439      10.354
  77.7500          1070.314      10.354
  77.8000          1012.557      10.070
  77.8500           919.795       9.598
  77.9000           835.621       9.148
  77.9500           718.771       8.480
  78.0000           592.760       7.701
  78.0500           490.082       7.003
  78.1000           403.775       6.363
  78.1500           341.836       5.868
  78.2000           298.839       5.471
  78.2500           271.919       5.298
  78.3000           249.316       5.088
  78.3500           240.040       4.965
  78.4000           234.879       4.856
  78.4500           226.617       4.794
  78.5000           225.021       4.808
  78.5500           222.762       4.797
  78.6000           213.154       4.731
  78.6500           217.476       4.732
  78.7000           208.240       4.604
  78.7500           208.179       4.592
  78.8000           209.836       4.684
  78.8500           205.554       4.584
  78.9000           207.055       4.611
  78.9500           211.824       4.767
  79.0000           212.389       4.724
  79.0500           210.356       4.683
  79.1000           209.351       4.599
  79.1500           208.905       4.631
  79.2000           212.163       4.652
  79.2500           214.487       4.647
  79.3000           214.602       4.673
  79.3500           209.626       4.625
  79.4000           204.517       4.536
  79.4500           210.606       4.630
  79.5000           207.531       4.605
  79.5500           202.956       4.573
  79.6000           206.140       4.621
  79.6500           209.384       4.620
  79.7000           208.994       4.601
  79.7500           212.830       4.667
  79.8000           207.320       4.692
  79.8500           210.943       4.667
  79.9000           215.388       4.711
  79.9500           218.602       4.735
  80.0000           216.244       4.683
  80.0500           219.521       4.732
  80.1000           218.220       4.737
  80.1500           214.918       4.703
  80.2000           222.897       4.819
  80.2500           216.196       4.707
  80.3000           215.753       4.715
  80.3500           218.709       4.697
  80.4000           222.074       4.828
  80.4500           217.882       4.724
  80.5000           222.025       4.831
  80.5500           224.588       4.825
  80.6000           219.465       4.765
  80.6500           232.945       4.837
  80.7000           252.084       5.104
  80.7500           262.092       5.169
  80.8000           296.117       5.461
  80.8500           340.504       5.846
  80.9000           398.515       6.315
  80.9500           471.763       6.868
  81.0000           557.930       7.473
  81.0500           630.795       7.947
  81.1000           684.557       8.279
  81.1500           715.040       8.462
  81.2000           689.491       8.309
  81.2500           628.699       7.934
  81.3000           569.754       7.550
  81.3500           483.251       6.952
  81.4000           401.704       6.357
  81.4500           336.518       5.835
  81.5000           299.827       5.519
  81.5500           277.345       5.315
  81.6000           256.271       5.080
  81.6500           246.774       4.975
  81.7000           248.664       5.039
  81.7500           256.955       5.125
  81.8000           268.132       5.207
  81.8500           306.142       5.545
  81.9000           346.725       5.892
  81.9500           417.007       6.459
  82.0000           514.766       7.177
  82.0500           612.250       7.827
  82.1000           730.782       8.551
  82.1500           871.429       9.340
  82.2000           970.349       9.857
  82.2500          1048.440      10.248
  82.3000          1075.174      10.376
  82.3500          1018.937      10.102
  82.4000           950.889       9.760
  82.4500           833.350       9.131
  82.5000           712.109       8.444
  82.5500           612.224       7.826
  82.6000           485.485       6.968
  82.6500           408.672       6.394
  82.7000           338.897       5.907
  82.7500           301.908       5.519
  82.8000           268.008       5.184
  82.8500           246.410       4.969
  82.9000           233.158       4.852
  82.9500           231.194       4.815
  83.0000           221.460       4.734
  83.0500           219.795       4.730
  83.1000           223.719       4.759
  83.1500           222.086       4.781
  83.2000           220.935       4.756
  83.2500           214.484       4.708
  83.3000           216.147       4.713
  83.3500           220.824       4.720
  83.4000           225.846       4.791
  83.4500           219.931       4.733
  83.5000           226.006       4.808
  83.5500           222.181       4.793
  83.6000           214.056       4.675
  83.6500           212.441       4.636
  83.7000           216.286       4.656
  83.7500           215.329       4.645
  83.8000           219.286       4.731
  83.8500           216.228       4.699
  83.9000           204.264       4.574
  83.9500           212.557       4.637
  84.0000           203.688       4.608
  84.0500           206.402       4.616
  84.1000           205.691       4.600
  84.1500           204.623       4.561
  84.2000           211.555       4.623
  84.2500           205.184       4.550
  84.3000           204.259       4.616
  84.3500           201.641       4.567
  84.4000           200.536       4.546
  84.4500           210.233       4.627
  84.5000           216.972       4.682
  84.5500           215.512       4.668
  84.6000           216.535       4.672
  84.6500           218.361       4.698
  84.7000           220.301       4.720
  84.7500           214.913       4.682
  84.8000           210.502       4.627
  84.8500           211.352       4.709
  84.9000           204.137       4.533
  84.9500           215.090       4.652
  85.0000           208.168       4.617
  85.0500           208.309       4.609
  85.1000           209.687       4.628
  85.1500           215.832       4.711
  85.2000           218.043       4.690
  85.2500           216.587       4.669
  85.3000           222.353       4.773
  85.3500           216.650       4.657
  85.4000           219.508       4.735
  85.4500           210.027       4.622
  85.5000           217.134       4.708
  85.5500           217.484       4.849
  85.6000           222.010       4.803
  85.6500           212.450       4.670
  85.7000           219.149       4.698
  85.7500           223.736       4.816
  85.8000           216.707       4.666
  85.8500           223.605       4.763
  85.9000           226.819       4.790
  85.9500           228.221       4.933
  86.0000           235.305       4.879
  86.0500           239.005       4.889
  86.1000           236.058       4.875
  86.1500           245.629       5.067
  86.2000           256.614       5.074
  86.2500           273.046       5.227
  86.3000           296.498       5.454
  86.3500           342.081       5.855
  86.4000           420.948       6.486
  86.4500           535.120       7.316
  86.5000           717.780       8.473
  86.5500           944.101       9.720
  86.6000          1241.151      11.164
  86.6500          1515.755      12.332
  86.7000          1764.074      13.292
  86.7500          1948.168      13.969
  86.8000          2077.841      14.428
  86.8500          2149.271      14.673
  86.9000          2096.259      14.490
  86.9500          1895.149      13.777
  87.0000          1598.135      12.651
  87.0500          1251.788      11.194
  87.1000           978.201       9.895
  87.1500           741.725       8.614
  87.2000           575.279       7.587
  87.2500           449.861       6.707
  87.3000           368.941       6.077
  87.3500           324.410       5.702
  87.4000           288.007       5.422
  87.4500           275.698       5.262
  87.5000           252.691       5.097
  87.5500           239.221       4.905
  87.6000           227.860       4.834
  87.6500           232.212       4.890
  87.7000           226.365       4.928
  87.7500           218.293       4.788
  87.8000           221.155       4.825
  87.8500           219.180       4.698
  87.9000           221.472       4.851
  87.9500           222.360       4.727
  88.0000           221.302       4.729
  88.0500           218.448       4.769
  88.1000           225.604       4.777
  88.1500           217.904       4.716
  88.2000           213.654       4.707
  88.2500           219.816       4.709
  88.3000           214.797       4.698
  88.3500           220.633       4.852
  88.4000           216.625       4.685
  88.4500           216.225       4.711
  88.5000           215.257       4.664
  88.5500           208.492       4.632
  88.6000           221.173       4.777
  88.6500           214.299       4.697
  88.7000           217.637       4.710
  88.7500           215.279       4.683
  88.8000           219.994       4.710
  88.8500           228.176       4.860
  88.9000           217.665       4.805
  88.9500           234.636       4.866
  89.0000           229.983       4.810
  89.0500           236.344       4.893
  89.1000           234.118       4.937
  89.1500           228.195       4.812
  89.2000           225.888       4.826
  89.2500           220.312       4.751
  89.3000           221.584       4.762
  89.3500           219.333       4.845
  89.4000           220.713       4.761
  89.4500           229.482       4.897
  89.5000           226.634       4.777
  89.5500           225.069       4.810
  89.6000           232.905       4.846
  89.6500           238.525       4.900
  89.7000           250.490       5.010
  89.7500           284.016       5.337
  89.8000           313.478       5.605
  89.8500           366.987       6.067
  89.9000           424.201       6.520
  89.9500           472.011       6.878
  90.0000           527.912       7.281
  90.0500           564.212       7.519
  90.1000           582.580       7.640
  90.1500           592.311       7.705
  90.2000           592.035       7.702
  90.2500           577.335       7.606
  90.3000           575.456       7.595
  90.3500           565.720       7.548
  90.4000           531.075       7.341
  90.4500           502.784       7.098
  90.5000           439.877       6.658
  90.5500           375.431       6.133
  90.6000           333.289       5.779
  90.6500           298.856       5.473
  90.7000           255.595       5.093
  90.7500           248.751       4.996
  90.8000           246.529       5.016
  90.8500           236.056       4.873
  90.9000           242.547       4.956
  90.9500           232.729       4.959
  91.0000           241.862       5.035
  91.0500           256.817       5.096
  91.1000           282.903       5.323
  91.1500           306.071       5.564
  91.2000           339.379       5.830
  91.2500           364.165       6.039
  91.3000           393.093       6.275
  91.3500           393.328       6.276
  91.4000           386.052       6.223
  91.4500           362.475       6.054
  91.5000           324.963       5.737
  91.5500           305.245       5.579
  91.6000           270.605       5.271
  91.6500           256.024       5.085
  91.7000           233.974       4.848
  91.7500           236.602       4.940
  91.8000           218.645       4.690
  91.8500           220.186       4.743
  91.9000           214.322       4.651
  91.9500           207.302       4.572
  92.0000           212.119       4.686
  92.0500           215.516       4.704
  92.1000           222.259       4.716
  92.1500           216.323       4.653
  92.2000           218.091       4.712
  92.2500           210.543       4.656
  92.3000           213.833       4.724
  92.3500           216.169       4.705
  92.4000           214.777       4.660
  92.4500           211.293       4.667
  92.5000           214.890       4.645
  92.5500           209.055       4.585
  92.6000           221.428       4.714
  92.6500           218.576       4.705
  92.7000           210.451       4.609
  92.7500           213.839       4.633
  92.8000           211.880       4.656
  92.8500           217.002       4.717
  92.9000           216.415       4.695
  92.9500           213.312       4.670
  93.0000           210.553       4.672
  93.0500           213.455       4.668
  93.1000           217.345       4.675
  93.1500           214.453       4.671
  93.2000           216.452       4.679
  93.2500           220.351       4.746
  93.3000           226.553       4.785
  93.3500           219.468       4.757
  93.4000           224.884       4.752
  93.4500           223.961       4.751
  93.5000           230.571       4.834
  93.5500           223.010       4.770
  93.6000           224.081       4.854
  93.6500           218.636       4.816
  93.7000           217.358       4.721
  93.7500           219.827       4.740
  93.8000           215.774       4.750
  93.8500           207.226       4.585
  93.9000           212.748       4.639
  93.9500           214.986       4.697
  94.0000           211.446       4.635
  94.0500           214.912       4.689
  94.1000           224.220       4.781
  94.1500           217.421       4.745
  94.2000           222.971       4.770
  94.2500           226.853       4.989
  94.3000           227.525       4.812
  94.3500           242.365       4.948
  94.4000           241.426       4.927
  94.4500           238.932       4.903
  94.5000           238.976       4.919
  94.5500           244.022       4.939
  94.6000           243.048       4.930
  94.6500           238.225       4.880
  94.7000           239.641       4.916
  94.7500           237.187       4.876
  94.8000           236.158       4.883
  94.8500           231.400       4.888
  94.9000           241.007       5.020
  94.9500           239.239       4.969
  95.0000           241.565       4.923
  95.0500           247.586       5.008
  95.1000           263.408       5.137
  95.1500           278.617       5.280
  95.2000           299.264       5.470
  95.2500           352.712       5.937
  95.3000           432.617       6.576
  95.3500           547.591       7.444
  95.4000           715.531       8.459
  95.4500           913.283       9.563
  95.5000          1069.597      10.346
  95.5500          1230.324      11.098
  95.6000          1342.815      11.598
  95.6500          1449.481      12.048
  95.7000          1565.971      12.527
  95.7500          1677.715      12.962
  95.8000          1837.120      13.565
  95.8500          1912.211      13.841
  95.9000          1844.048      13.588
  95.9500          1676.387      12.958
  96.0000          1438.609      11.998
  96.0500          1142.137      10.686
  96.1000           872.426       9.340
  96.1500           669.474       8.181
  96.2000           521.547       7.228
  96.2500           432.669       6.576
  96.3000           356.433       5.972
  96.3500           321.813       5.698
  96.4000           294.680       5.468
  96.4500           273.050       5.228
  96.5000           258.348       5.128
  96.5500           261.340       5.199
  96.6000           253.166       5.104
  96.6500           233.954       4.925
  96.7000           231.172       4.898
  96.7500           236.012       4.937
  96.8000           224.799       4.771
  96.8500           230.978       4.863
  96.9000           235.198       4.889
  96.9500           230.457       4.845
  97.0000           225.765       4.789
  97.0500           222.995       4.746
  97.1000           233.953       4.909
  97.1500           227.436       4.790
  97.2000           223.302       4.787
  97.2500           224.452       4.809
  97.3000           226.921       4.779
  97.3500           222.579       4.783
  97.4000           224.687       4.806
  97.4500           223.659       4.742
  97.5000           216.931       4.657
  97.5500           227.498       4.792
  97.6000           216.319       4.699
  97.6500           226.815       4.820
  97.7000           222.419       4.723
  97.7500           218.218       4.695
  97.8000           221.553       4.716
  97.8500           220.120       4.704
  97.9000           223.033       4.760
  97.9500           227.915       4.834
  98.0000           217.602       4.791
  98.0500           222.112       4.732
  98.1000           227.185       4.771
  98.1500           226.604       4.777
  98.2000           228.535       4.782
  98.2500           230.548       4.808
  98.3000           227.992       4.819
  98.3500           225.120       4.817
  98.4000           229.998       4.828
  98.4500           236.079       4.866
  98.5000           248.538       5.022
  98.5500           250.262       5.006
  98.6000           265.291       5.188
  98.6500           285.732       5.427
  98.7000           334.985       5.791
  98.7500           392.352       6.264
  98.8000           474.908       6.893
  98.8500           560.674       7.491
  98.9000           670.740       8.193
  98.9500           731.018       8.556
  99.0000           769.555       8.777
  99.0500           802.716       8.966
  99.1000           822.893       9.079
  99.1500           799.146       8.947
  99.2000           796.454       8.933
  99.2500           814.227       9.030
  99.3000           800.964       8.957
  99.3500           797.495       8.937
  99.4000           752.314       8.679
  99.4500           697.104       8.353
  99.5000           574.631       7.581
  99.5500           488.458       6.994
  99.6000           421.814       6.494
  99.6500           344.418       5.889
  99.7000           304.843       5.561
  99.7500           275.124       5.323
  99.8000           264.555       5.188
  99.8500           253.034       5.073
  99.9000           242.782       4.985
  99.9500           242.979       4.964
 100.0000           245.939       5.042
 100.0500           238.370       5.015
 100.1000           230.531       5.005
 100.1500           234.634       4.932
 100.2000           234.878       4.938
 100.2500           232.677       4.886
 100.3000           230.684       4.942
 100.3500           231.431       4.903
 100.4000           234.626       4.886
 100.4500           228.960       4.851
 100.5000           224.736       4.800
 100.5500           222.585       4.734
 100.6000           225.070       4.771
 100.6500           221.651       4.720
 100.7000           226.443       4.811
 100.7500           221.948       4.789
 100.8000           216.161       4.661
 100.8500           217.057       4.673
 100.9000           224.004       4.745
 100.9500           217.785       4.668
 101.0000           227.681       4.868
 101.0500           218.945       4.769
 101.1000           219.877       4.752
 101.1500           221.802       4.759
 101.2000           233.795       4.868
 101.2500           223.710       4.799
 101.3000           220.263       4.772
 101.3500           224.927       4.796
 101.4000           219.283       4.827
 101.4500           221.803       4.792
 101.5000           224.615       4.769
 101.5500           224.483       4.784
 101.6000           226.808       4.846
 101.6500           220.350       4.752
 101.7000           222.760       4.819
 101.7500           220.107       4.750
 101.8000           233.255       4.938
 101.8500           217.976       4.804
 101.9000           230.669       4.854
 101.9500           223.352       4.746
 102.0000           220.051       4.725
 102.0500           217.026       4.667
 102.1000           218.554       4.721
 102.1500           222.610       4.776
 102.2000           223.291       4.794
 102.2500           220.330       4.814
 102.3000           225.605       4.967
 102.3500           220.089       4.767
 102.4000           221.370       4.716
 102.4500           218.851       4.744
 102.5000           222.443       4.760
 102.5500           214.546       4.755
 102.6000           221.612       4.751
 102.6500           224.678       4.813
 102.7000           230.241       4.899
 102.7500           230.724       4.846
 102.8000           220.610       4.760
 102.8500           228.238       4.826
 102.9000           227.822       4.844
 102.9500           229.792       4.806
 103.0000           224.563       4.817
 103.0500           220.730       4.787
 103.1000           219.111       4.693
 103.1500           220.708       4.791
 103.2000           217.095       4.868
 103.2500           227.812       4.825
 103.3000           234.241       4.876
 103.3500           241.148       4.977
 103.4000           245.503       5.035
 103.4500           242.524       4.954
 103.5000           243.676       4.968
 103.5500           236.065       4.951
 103.6000           236.353       4.924
 103.6500           220.258       4.725
 103.7000           226.288       4.781
 103.7500           235.108       4.904
 103.8000           228.378       4.792
 103.8500           226.361       4.838
 103.9000           229.219       4.856
 103.9500           235.774       4.883
 104.0000           235.262       4.892
 104.0500           231.525       4.894
 104.1000           226.445       4.831
 104.1500           235.238       4.906
 104.2000           235.113       4.959
 104.2500           250.063       5.098
 104.3000           248.944       5.003
 104.3500           259.492       5.118
 104.4000           277.112       5.288
 104.4500           314.816       5.615
 104.5000           380.181       6.178
 104.5500           454.375       6.755
 104.6000           583.515       7.632
 104.6500           755.389       8.687
 104.7000           977.895       9.891
 104.7500          1157.023      10.764
 104.8000          1265.678      11.258
 104.8500          1239.902      11.142
 104.9000          1108.474      10.532
 104.9500           966.397       9.836
 105.0000           853.057       9.240
 105.0500           760.431       8.726
 105.1000           718.444       8.482
 105.1500           704.660       8.402
 105.2000           735.954       8.583
 105.2500           733.455       8.570
 105.3000           688.654       8.302
 105.3500           614.974       7.845
 105.4000           509.073       7.169
 105.4500           429.614       6.575
 105.5000           373.790       6.114
 105.5500           326.640       5.743
 105.6000           299.926       5.497
 105.6500           272.372       5.289
 105.7000           261.396       5.132
 105.7500           252.615       5.037
 105.8000           256.776       5.078
 105.8500           243.890       4.995
 105.9000           241.236       4.919
 105.9500           233.500       4.883
 106.0000           241.540       5.017
 106.0500           241.689       5.076
 106.1000           244.997       5.014
 106.1500           240.936       4.949
 106.2000           231.347       4.839
 106.2500           240.786       4.908
 106.3000           236.030       4.868
 106.3500           238.319       4.891
 106.4000           233.809       4.850
 106.4500           225.421       4.801
 106.5000           232.768       4.939
 106.5500           233.790       4.944
 106.6000           230.294       4.884
 106.6500           222.889       4.854
 106.7000           233.853       4.889
 106.7500           233.993       4.881
 106.8000           234.438       4.876
 106.8500           228.407       4.812
 106.9000           222.030       4.749
 106.9500           226.919       4.827
 107.0000           227.393       4.803
 107.0500           229.551       4.837
 107.1000           235.284       4.905
 107.1500           238.525       4.925
 107.2000           234.773       4.890
 107.2500           238.479       4.905
 107.3000           235.356       4.930
 107.3500           236.273       4.914
 107.4000           236.699       4.896
 107.4500           239.732       4.910
 107.5000           235.183       4.897
 107.5500           241.433       4.959
 107.6000           237.743       4.896
 107.6500           234.359       4.861
 107.7000           233.761       4.906
 107.7500           235.264       4.955
 107.8000           229.533       4.929
 107.8500           237.675       4.897
 107.9000           234.003       4.896
 107.9500           238.206       4.906
 108.0000           255.030       5.088
 108.0500           271.559       5.236
 108.1000           290.871       5.403
 108.1500           296.811       5.460
 108.2000           311.131       5.600
 108.2500           330.581       5.753
 108.3000           338.999       5.845
 108.3500           356.438       5.977
 108.4000           367.091       6.061
 108.4500           383.817       6.202
 108.5000           404.380       6.367
 108.5500           425.840       6.533
 108.6000           423.147       6.513
 108.6500           392.454       6.270
 108.7000           356.564       5.992
 108.7500           339.488       5.852
 108.8000           324.567       5.779
 108.8500           299.097       5.599
 108.9000           280.323       5.319
 108.9500           268.199       5.222
 109.0000           278.457       5.350
 109.0500           255.238       5.233
 109.1000           263.537       5.180
 109.1500           280.891       5.380
 109.2000           295.052       5.490
 109.2500           318.366       5.702
 109.3000           365.166       6.045
 109.3500           420.125       6.483
 109.4000           482.544       6.948
 109.4500           550.385       7.420
 109.5000           623.152       7.898
 109.5500           679.855       8.249
 109.6000           708.547       8.424
 109.6500           704.991       8.404
 109.7000           699.751       8.372
 109.7500           666.581       8.170
 109.8000           651.994       8.092
 109.8500           634.833       7.975
 109.9000           597.980       7.745
 109.9500           562.503       7.524
 110.0000           506.773       7.124
 110.0500           460.929       6.797
 110.1000           411.242       6.416
 110.1500           356.171       5.992
 110.2000           326.557       5.824
 110.2500           295.908       5.505
 110.3000           271.625       5.304
 110.3500           257.838       5.184
 110.4000           252.536       5.105
 110.4500           243.993       5.022
 110.5000           253.518       5.085
 110.5500           246.817       4.976
 110.6000           252.590       5.064
 110.6500           245.345       5.005
 110.7000           241.750       4.923
 110.7500           240.881       4.918
 110.8000           246.071       4.968
 110.8500           247.418       5.089
 110.9000           235.856       4.920
 110.9500           254.851       5.081
 111.0000           244.611       5.022
 111.0500           234.157       4.896
 111.1000           239.388       5.007
 111.1500           247.741       5.050
 111.2000           247.141       5.046
 111.2500           247.959       5.055
 111.3000           242.209       5.008
 111.3500           236.254       4.905
 111.4000           247.872       5.009
 111.4500           254.033       5.057
 111.5000           235.892       4.955
 111.5500           235.204       4.945
 111.6000           242.014       5.101
 111.6500           242.837       4.998
 111.7000           241.140       4.933
 111.7500           233.509       4.910
 111.8000           239.272       4.908
 111.8500           240.328       4.951
 111.9000           232.280       4.921
 111.9500           234.442       4.892
 112.0000           236.157       4.924
 112.0500           236.508       4.871
 112.1000           245.677       4.959
 112.1500           248.191       5.013
 112.2000           238.140       4.912
 112.2500           234.854       4.883
 112.3000           239.782       4.967
 112.3500           240.009       4.986
 112.4000           237.587       4.988
 112.4500           237.978       4.976
 112.5000           236.914       4.913
 112.5500           238.934       4.954
 112.6000           238.324       4.950
 112.6500           237.092       4.978
 112.7000           246.472       5.026
 112.7500           245.423       5.049
 112.8000           243.804       4.986
 112.8500           244.777       5.004
 112.9000           245.053       5.070
 112.9500           243.319       5.047
 113.0000           240.506       5.014
 113.0500           237.465       4.937
 113.1000           244.987       4.966
 113.1500           242.112       5.012
 113.2000           238.455       5.002
 113.2500           247.429       5.013
 113.3000           239.338       4.909
 113.3500           244.745       4.993
 113.4000           245.647       4.975
 113.4500           242.840       4.947
 113.5000           243.311       4.958
 113.5500           261.967       5.129
 113.6000           259.000       5.126
 113.6500           261.539       5.124
 113.7000           254.033       5.060
 113.7500           267.316       5.239
 113.8000           275.728       5.292
 113.8500           290.339       5.471
 113.9000           322.624       5.704
 113.9500           376.740       6.184
 114.0000           445.339       6.676
 114.0500           540.117       7.349
 114.1000           669.850       8.185
 114.1500           821.803       9.068
 114.2000           994.173       9.977
 114.2500          1141.873      10.694
 114.3000          1243.358      11.161
 114.3500          1290.354      11.370
 114.4000          1331.999      11.554
 114.4500          1392.872      11.814
 114.5000          1448.663      12.049
 114.5500          1472.652      12.148
 114.6000          1511.509      12.307
 114.6500          1501.559      12.268
 114.7000          1467.881      12.128
 114.7500          1465.905      12.120
 114.8000          1419.099      11.923
 114.8500          1324.092      11.515
 114.9000          1169.589      10.823
 114.9500           987.333       9.950
 115.0000           800.762       8.958
 115.0500           641.518       8.011
 115.1000           523.744       7.240
 115.1500           441.202       6.703
 115.2000           373.606       6.117
 115.2500           335.733       5.829
 115.3000           310.134       5.604
 115.3500           292.225       5.447
 115.4000           283.405       5.402
 115.4500           270.643       5.338
 115.5000           269.295       5.244
 115.5500           254.665       5.129
 115.6000           259.382       5.106
 115.6500           247.582       5.001
 115.7000           247.711       4.991
 115.7500           251.822       5.075
 115.8000           245.449       5.012
 115.8500           248.306       5.012
 115.9000           249.353       5.012
 115.9500           252.090       5.060
 116.0000           242.871       4.957
 116.0500           246.045       5.081
 116.1000           248.732       5.056
 116.1500           255.815       5.091
 116.2000           252.272       5.052
 116.2500           249.944       5.033
 116.3000           255.086       5.080
 116.3500           251.113       5.058
 116.4000           251.203       5.064
 116.4500           258.443       5.098
 116.5000           254.827       5.057
 116.5500           252.375       5.043
 116.6000           256.987       5.145
 116.6500           248.378       5.084
 116.7000           251.293       5.037
 116.7500           256.167       5.228
 116.8000           236.650       5.036
 116.8500           241.544       5.066
 116.9000           242.927       5.010
 116.9500           234.313       4.954
 117.0000           242.837       4.986
 117.0500           244.974       4.953
 117.1000           249.219       5.009
 117.1500           252.147       5.070
 117.2000           247.943       5.011
 117.2500           245.659       5.051
 117.3000           243.686       5.064
 117.3500           254.930       5.111
 117.4000           249.371       5.050
 117.4500           251.832       5.050
 117.5000           254.710       5.078
 117.5500           266.815       5.204
 117.6000           278.644       5.289
 117.6500           297.798       5.490
 117.7000           331.407       5.783
 117.7500           356.566       5.976
 117.8000           368.849       6.076
 117.8500           385.046       6.209
 117.9000           399.104       6.342
 117.9500           415.466       6.451
 118.0000           423.676       6.547
 118.0500           470.193       6.863
 118.1000           523.648       7.240
 118.1500           607.540       7.798
 118.2000           700.753       8.375
 118.2500           812.055       9.016
 118.3000           913.740       9.566
 118.3500           973.498       9.877
 118.4000          1014.275      10.082
 118.4500          1006.841      10.043
 118.5000           955.552       9.783
 118.5500           875.833       9.367
 118.6000           754.911       8.691
 118.6500           637.061       7.989
 118.7000           526.676       7.267
 118.7500           454.756       6.757
 118.8000           385.973       6.215
 118.8500           339.962       5.840
 118.9000           319.741       5.706
 118.9500           312.279       5.618
 119.0000           298.045       5.517
 119.0500           295.794       5.471
 119.1000           301.341       5.498
 119.1500           302.251       5.502
 119.2000           301.153       5.498
 119.2500           309.801       5.570
 119.3000           319.833       5.663
 119.3500           332.051       5.776
 119.4000           333.440       5.796
 119.4500           367.267       6.070
 119.5000           400.785       6.345
 119.5500           436.448       6.609
 119.6000           492.741       7.024
 119.6500           531.352       7.295
 119.7000           550.183       7.436
 119.7500           538.381       7.371
 119.8000           503.092       7.151
 119.8500           467.266       6.890
 119.9000           416.085       6.457
 119.9500           375.239       6.132
 120.0000           337.881       5.823
 120.0500           310.678       5.621
 120.1000           283.070       5.458
 120.1500           265.394       5.167
 120.2000           256.275       5.096
 120.2500           259.382       5.187
 120.3000           248.239       5.105
 120.3500           249.687       5.071
 120.4000           248.251       5.006
 120.4500           239.521       4.961
 120.5000           241.304       5.134
 120.5500           253.442       5.115
 120.6000           248.118       4.987
 120.6500           248.223       5.043
 120.7000           244.651       5.077
 120.7500           248.639       4.987
 120.8000           249.920       5.003
 120.8500           241.745       4.987
 120.9000           249.993       5.049
 120.9500           257.239       5.116
 121.0000           251.553       5.098
 121.0500           248.951       5.010
 121.1000           241.912       4.936
 121.1500           253.719       5.108
 121.2000           254.047       5.103
 121.2500           244.647       4.965
 121.3000           248.718       5.012
 121.3500           249.467       5.026
 121.4000           251.761       5.060
 121.4500           251.599       5.058
 121.5000           241.822       4.991
 121.5500           244.738       5.003
 121.6000           251.824       5.050
 121.6500           256.613       5.158
 121.7000           256.659       5.137
 121.7500           253.401       5.123
 121.8000           257.651       5.184
 121.8500           253.934       5.091
 121.9000           252.651       5.052
 121.9500           251.552       5.089
 122.0000           257.521       5.090
 122.0500           259.572       5.110
 122.1000           248.196       4.999
 122.1500           250.220       5.029
 122.2000           251.299       5.054
 122.2500           249.491       5.024
 122.3000           252.920       5.087
 122.3500           256.608       5.127
 122.4000           256.920       5.105
 122.4500           256.277       5.105
 122.5000           256.027       5.173
 122.5500           251.104       5.080
 122.6000           244.140       4.974
 122.6500           248.606       5.019
 122.7000           248.199       5.057
 122.7500           252.588       5.112
 122.8000           258.725       5.127
 122.8500           251.918       5.040
 122.9000           251.238       5.072
 122.9500           252.510       5.074
 123.0000           252.620       5.089
 123.0500           251.137       5.083
 123.1000           258.953       5.181
 123.1500           257.533       5.097
 123.2000           259.669       5.135
 123.2500           256.023       5.097
 123.3000           258.451       5.158
 123.3500           262.473       5.142
 123.4000           259.782       5.128
 123.4500           260.159       5.105
 123.5000           250.913       5.116
 123.5500           269.171       5.233
 123.6000           258.577       5.101
 123.6500           258.750       5.095
 123.7000           266.385       5.213
 123.7500           268.125       5.236
 123.8000           273.354       5.353
 123.8500           285.366       5.399
 123.9000           296.310       5.497
 123.9500           310.956       5.589
 124.0000           334.332       5.808
 124.0500           364.168       6.043
 124.1000           421.055       6.494
 124.1500           494.037       7.037
 124.2000           598.648       7.737
 124.2500           721.329       8.498
 124.3000           863.724       9.302
 124.3500           994.910       9.984
 124.4000          1116.988      10.581
 124.4500          1213.289      11.028
 124.5000          1287.593      11.361
 124.5500          1405.558      11.872
 124.6000          1558.312      12.499
 124.6500          1763.145      13.296
 124.7000          2022.048      14.236
 124.7500          2295.416      15.167
 124.8000          2592.066      16.120
 124.8500          2761.702      16.640
 124.9000          2838.291      16.872
 124.9500          2791.742      16.732
 125.0000          2707.626      16.479
 125.0500          2549.253      15.988
 125.1000          2440.089      15.642
 125.1500          2302.113      15.192
 125.2000          2086.794      14.464
 125.2500          1869.946      13.689
 125.3000          1613.665      12.713
 125.3500          1310.205      11.454
 125.4000          1058.850      10.296
 125.4500           846.910       9.221
 125.5000           680.432       8.288
 125.5500           564.756       7.522
 125.6000           478.907       6.924
 125.6500           426.926       6.541
 125.7000           380.510       6.181
 125.7500           354.093       5.963
 125.8000           332.576       5.779
 125.8500           308.329       5.566
 125.9000           297.425       5.467
 125.9500           295.325       5.451
 126.0000           283.292       5.328
 126.0500           284.740       5.343
 126.1000           290.316       5.401
 126.1500           282.304       5.328
 126.2000           278.733       5.315
 126.2500           271.904       5.241
 126.3000           270.188       5.269
 126.3500           268.137       5.233
 126.4000           267.971       5.243
 126.4500           280.998       5.305
 126.5000           270.962       5.239
 126.5500           268.473       5.192
 126.6000           271.800       5.250
 126.6500           270.132       5.209
 126.7000           267.296       5.218
 126.7500           270.413       5.225
 126.8000           263.897       5.165
 126.8500           266.779       5.174
 126.9000           268.781       5.231
 126.9500           264.417       5.173
 127.0000           259.830       5.120
 127.0500           266.809       5.228
 127.1000           252.936       5.058
 127.1500           264.681       5.170
 127.2000           249.850       5.044
 127.2500           251.430       5.087
 127.3000           264.481       5.179
 127.3500           265.645       5.176
 127.4000           249.567       5.108
 127.4500           256.290       5.105
 127.5000           261.020       5.172
 127.5500           263.970       5.229
 127.6000           267.069       5.219
 127.6500           262.695       5.167
 127.7000           254.726       5.077
 127.7500           249.276       5.025
 127.8000           257.386       5.079
 127.8500           261.190       5.152
 127.9000           259.781       5.146
 127.9500           264.076       5.148
 128.0000           268.869       5.214
 128.0500           266.158       5.236
 128.1000           269.039       5.214
 128.1500           271.803       5.250
 128.2000           272.072       5.249
 128.2500           284.371       5.338
 128.3000           293.511       5.452
 128.3500           296.433       5.451
 128.4000           318.618       5.650
 128.4500           351.606       5.943
 128.5000           385.340       6.229
 128.5500           430.551       6.570
 128.6000           497.516       7.085
 128.6500           566.033       7.539
 128.7000           630.316       7.952
 128.7500           682.194       8.269
 128.8000           723.740       8.517
 128.8500           744.334       8.639
 128.9000           727.768       8.542
 128.9500           718.184       8.484
 129.0000           693.879       8.342
 129.0500           684.638       8.286
 129.1000           683.211       8.279
 129.1500           695.666       8.353
 129.2000           715.400       8.470
 129.2500           735.293       8.588
 129.3000           753.552       8.692
 129.3500           749.541       8.670
 129.4000           738.361       8.603
 129.4500           718.432       8.487
 129.5000           681.949       8.270
 129.5500           629.226       7.946
 129.6000           577.757       7.610
 129.6500           534.496       7.323
 129.7000           514.268       7.213
 129.7500           491.347       7.019
 129.8000           480.615       6.943
 129.8500           514.758       7.185
 129.9000           545.036       7.393
 129.9500           573.717       7.594
 130.0000           625.526       7.934
 130.0500           648.065       8.058
 130.1000           680.487       8.258
 130.1500           665.507       8.173
 130.2000           637.998       8.006
 130.2500           615.472       7.866
 130.3000           599.702       7.765
 130.3500           580.264       7.628
 130.4000           581.151       7.644
 130.4500           580.140       7.687
 130.5000           617.261       7.875
 130.5500           653.158       8.100
 130.6000           649.863       8.106
 130.6500           677.888       8.253
 130.7000           679.226       8.253
 130.7500           661.548       8.145
 130.8000           647.664       8.059
 130.8500           627.730       7.933
 130.9000           598.680       7.749
 130.9500           552.387       7.441
 131.0000           516.982       7.198
 131.0500           481.954       6.950
 131.1000           451.409       6.726
 131.1500           411.389       6.439
 131.2000           373.411       6.122
 131.2500           338.515       5.854
 131.3000           310.567       5.674
 131.3500           301.525       5.546
 131.4000           288.947       5.429
 131.4500           290.452       5.453
 131.5000           283.916       5.371
 131.5500           265.871       5.172
 131.6000           267.679       5.212
 131.6500           259.936       5.167
 131.7000           265.682       5.196
 131.7500           260.498       5.159
 131.8000           249.465       5.023
 131.8500           256.183       5.087
 131.9000           267.393       5.181
 131.9500           265.281       5.156
 132.0000           269.891       5.214
 132.0500           273.818       5.255
 132.1000           263.342       5.158
 132.1500           263.393       5.171
 132.2000           265.274       5.169
 132.2500           261.671       5.181
 132.3000           267.659       5.226
 132.3500           270.079       5.205
 132.4000           262.061       5.161
 132.4500           264.868       5.197
 132.5000           258.874       5.134
 132.5500           263.075       5.173
 132.6000           262.081       5.163
 132.6500           256.116       5.113
 132.7000           260.379       5.130
 132.7500           261.239       5.140
 132.8000           268.178       5.195
 132.8500           262.964       5.141
 132.9000           254.921       5.108
 132.9500           259.928       5.169
 133.0000           258.149       5.176
 133.0500           268.738       5.205
 133.1000           265.225       5.257
 133.1500           259.699       5.133
 133.2000           257.432       5.118
 133.2500           262.129       5.162
 133.3000           272.020       5.266
 133.3500           260.803       5.146
 133.4000           265.053       5.176
 133.4500           269.403       5.212
 133.5000           256.910       5.120
 133.5500           259.175       5.156
 133.6000           270.448       5.242
 133.6500           262.587       5.221
 133.7000           263.819       5.223
 133.7500           256.644       5.178
 133.8000           264.428       5.212
 133.8500           259.660       5.218
 133.9000           256.442       5.162
 133.9500           254.905       5.097
 134.0000           251.037       5.138
 134.0500           263.717       5.293
 134.1000           251.104       5.164
 134.1500           250.178       5.118
 134.2000           253.831       5.186
 134.2500           260.053       5.157
 134.3000           258.186       5.132
 134.3500           252.390       5.065
 134.4000           255.686       5.105
 134.4500           255.372       5.117
 134.5000           259.622       5.167
 134.5500           257.756       5.113
 134.6000           253.199       5.064
 134.6500           254.484       5.146
 134.7000           256.706       5.135
 134.7500           249.923       5.051
 134.8000           252.635       5.082
 134.8500           252.491       5.109
 134.9000           260.143       5.134
 134.9500           254.302       5.069
 135.0000           251.527       5.104
 135.0500           254.403       5.129
 135.1000           254.868       5.116
 135.1500           253.961       5.096
 135.2000           251.551       5.165
 135.2500           246.331       5.088
 135.3000           249.033       5.057
 135.3500           256.699       5.187
 135.4000           268.994       5.227
 135.4500           272.572       5.272
 135.5000           257.554       5.137
 135.5500           257.623       5.179
 135.6000           255.814       5.116
 135.6500           259.199       5.195
 135.7000           264.384       5.165
 135.7500           267.952       5.198
 135.8000           272.197       5.261
 135.8500           278.526       5.322
 135.9000           280.997       5.325
 135.9500           290.646       5.462
 136.0000           314.338       5.681
 136.0500           330.161       5.809
 136.1000           343.754       5.941
 136.1500           366.904       6.092
 136.2000           412.356       6.431
 136.2500           445.046       6.705
 136.3000           472.433       6.918
 136.3500           533.925       7.321
 136.4000           573.899       7.592
 136.4500           628.343       7.940
 136.5000           672.757       8.217
 136.5500           713.512       8.462
 136.6000           756.786       8.717
 136.6500           769.745       8.790
 136.7000           802.213       8.973
 136.7500           791.842       8.917
 136.8000           799.672       8.960
 136.8500           812.849       9.034
 136.9000           804.490       8.987
 136.9500           778.875       8.845
 137.0000           783.617       8.868
 137.0500           740.662       8.621
 137.1000           710.005       8.441
 137.1500           678.869       8.255
 137.2000           613.878       7.848
 137.2500           541.613       7.415
 137.3000           498.871       7.080
 137.3500           442.152       6.660
 137.4000           400.635       6.348
 137.4500           361.610       6.088
 137.5000           338.049       5.836
 137.5500           312.908       5.632
 137.6000           290.880       5.419
 137.6500           284.260       5.374
 137.7000           274.138       5.276
 137.7500           273.710       5.254
 137.8000           262.160       5.172
 137.8500           250.580       5.061
 137.9000           259.981       5.124
 137.9500           260.036       5.165
 138.0000           255.789       5.175
 138.0500           252.173       5.116
 138.1000           255.724       5.122
 138.1500           254.388       5.168
 138.2000           263.122       5.151
 138.2500           250.190       5.165
 138.3000           250.645       5.107
 138.3500           261.184       5.226
 138.4000           263.311       5.227
 138.4500           266.000       5.206
 138.5000           268.448       5.201
 138.5500           266.985       5.222
 138.6000           267.785       5.214
 138.6500           263.691       5.244
 138.7000           265.765       5.202
 138.7500           268.694       5.199
 138.8000           264.555       5.175
 138.8500           278.840       5.335
 138.9000           278.188       5.336
 138.9500           274.181       5.305
 139.0000           267.045       5.254
 139.0500           262.623       5.132
 139.1000           266.948       5.201
 139.1500           268.620       5.217
 139.2000           269.911       5.212
 139.2500           267.667       5.198
 139.3000           266.611       5.208
 139.3500           260.602       5.124
 139.4000           269.594       5.205
 139.4500           270.354       5.264
 139.5000           272.400       5.256
 139.5500           282.303       5.383
 139.6000           262.233       5.151
 139.6500           265.231       5.199
 139.7000           265.142       5.199
 139.7500           285.237       5.360
 139.8000           264.814       5.199
 139.8500           253.306       5.118
 139.9000           256.106       5.116
 139.9500           261.465       5.127
 140.0000           259.895       5.119
 140.0500           269.461       5.304
 140.1000           273.239       5.260
 140.1500           268.474       5.206
 140.2000           275.698       5.309
 140.2500           266.952       5.183
 140.3000           263.761       5.213
 140.3500           262.761       5.185
 140.4000           264.342       5.221
 140.4500           266.417       5.210
 140.5000           267.858       5.236
 140.5500           255.798       5.090
 140.6000           259.679       5.162
 140.6500           261.663       5.203
 140.7000           264.396       5.183
 140.7500           269.565       5.254
 140.8000           267.964       5.195
 140.8500           266.396       5.189
 140.9000           268.174       5.223
 140.9500           275.965       5.270
 141.0000           285.663       5.363
 141.0500           297.164       5.462
 141.1000           310.516       5.584
 141.1500           323.347       5.697
 141.2000           331.865       5.775
 141.2500           346.780       5.903
 141.3000           363.822       6.044
 141.3500           377.602       6.159
 141.4000           393.935       6.305
 141.4500           414.132       6.463
 141.5000           435.355       6.612
 141.5500           450.250       6.724
 141.6000           458.456       6.786
 141.6500           476.227       6.915
 141.7000           466.328       6.844
 141.7500           450.758       6.738
 141.8000           447.504       6.714
 141.8500           442.749       6.703
 141.9000           427.565       6.555
 141.9500           421.756       6.510
 142.0000           409.391       6.426
 142.0500           405.482       6.421
 142.1000           411.262       6.435
 142.1500           410.486       6.421
 142.2000           426.322       6.544
 142.2500           436.705       6.626
 142.3000           458.655       6.803
 142.3500           478.520       6.946
 142.4000           491.927       7.029
 142.4500           506.505       7.144
 142.5000           514.357       7.188
 142.5500           506.081       7.130
 142.6000           484.908       6.979
 142.6500           476.170       6.915
 142.7000           460.953       6.813
 142.7500           442.606       6.704
 142.8000           417.623       6.478
 142.8500           388.705       6.249
 142.9000           358.453       6.008
 142.9500           339.099       5.849
 143.0000           324.401       5.721
 143.0500           305.453       5.552
 143.1000           290.522       5.454
 143.1500           293.943       5.478
 143.2000           288.776       5.399
 143.2500           269.744       5.263
 143.3000           285.798       5.388
 143.3500           277.204       5.305
 143.4000           268.438       5.231
 143.4500           261.174       5.131
 143.5000           268.514       5.224
 143.5500           267.324       5.204
 143.6000           264.925       5.234
 143.6500           269.298       5.248
 143.7000           265.218       5.181
 143.7500           269.273       5.214
 143.8000           268.474       5.231
 143.8500           267.640       5.243
 143.9000           268.751       5.261
 143.9500           263.149       5.173
 144.0000           273.888       5.303
 144.0500           266.244       5.196
 144.1000           264.256       5.205
 144.1500           263.583       5.189
 144.2000           256.340       5.129
 144.2500           262.688       5.173
 144.3000           266.340       5.191
 144.3500           267.368       5.209
 144.4000           270.045       5.233
 144.4500           268.380       5.246
 144.5000           259.796       5.140
 144.5500           266.793       5.214
 144.6000           264.319       5.249
 144.6500           266.439       5.251
 144.7000           274.448       5.285
 144.7500           269.843       5.218
 144.8000           261.691       5.154
 144.8500           262.833       5.261
 144.9000           263.839       5.205
 144.9500           267.796       5.245
 145.0000           266.043       5.243
 145.0500           269.233       5.257
 145.1000           267.853       5.229
 145.1500           268.435       5.247
 145.2000           267.911       5.214
 145.2500           265.393       5.198
 145.3000           275.934       5.303
 145.3500           274.235       5.264
 145.4000           269.857       5.264
 145.4500           275.506       5.271
 145.5000           282.057       5.325
 145.5500           281.535       5.363
 145.6000           275.253       5.332
 145.6500           274.960       5.282
 145.7000           274.684       5.311
 145.7500           273.895       5.308
 145.8000           274.145       5.406
 145.8500           273.876       5.405
 145.9000           270.870       5.360
 145.9500           267.683       5.334
 146.0000           271.452       5.424
 146.0500           271.862       5.448
 146.1000           275.238       5.474
 146.1500           277.128       5.521
 146.2000           286.856       5.634
 146.2500           272.516       5.576
 146.3000           276.176       5.589
 146.3500           270.018       5.567
 146.4000           277.417       5.611
 146.4500           278.568       5.608
 146.5000           281.862       5.641
 146.5500           275.788       5.590
 146.6000           268.308       5.487
 146.6500           273.428       5.527
 146.7000           271.746       5.507
 146.7500           279.502       5.587
 146.8000           279.122       5.605
 146.8500           276.742       5.582
 146.9000           279.861       5.594
 146.9500           276.579       5.590
 147.0000           279.681       5.600
 147.0500           283.618       5.630
 147.1000           275.800       5.550
 147.1500           274.938       5.543
 147.2000           280.181       5.649
 147.2500           285.626       5.691
 147.3000           291.039       5.707
 147.3500           283.108       5.632
 147.4000           278.109       5.618
 147.4500           291.764       5.769
 147.5000           287.894       5.679
 147.5500           277.995       5.590
 147.6000           286.528       5.710
 147.6500           279.264       5.747
 147.7000           270.881       5.594
 147.7500           278.390       5.599
 147.8000           282.781       5.722
 147.8500           279.766       5.649
 147.9000           277.396       5.600
 147.9500           285.017       5.693
 148.0000           280.865       5.658
 148.0500           280.816       5.679
 148.1000           283.460       5.676
 148.1500           287.125       5.687
 148.2000           290.751       5.750
 148.2500           282.996       5.674
 148.3000           269.348       5.548
 148.3500           269.030       5.584
 148.4000           276.198       5.672
 148.4500           278.576       5.712
 148.5000           289.442       5.946
 148.5500           288.229       5.882
 148.6000           284.581       5.870
 148.6500           282.099       5.852
 148.7000           283.360       5.929
 148.7500           291.464       6.100
 148.8000           292.234       6.085
 148.8500           285.543       6.026
 148.9000           281.098       6.019
 148.9500           289.618       6.061
 149.0000           287.291       6.014
 149.0500           285.154       6.010
 149.1000           289.829       6.054
 149.1500           300.472       6.177
 149.2000           308.419       6.256
 149.2500           302.490       6.198
 149.3000           302.028       6.166
 149.3500           306.235       6.241
 149.4000           314.745       6.321
 149.4500           311.168       6.334
 149.5000           312.421       6.356
 149.5500           316.874       6.450
 149.6000           311.928       6.379
 149.6500           312.449       6.422
 149.7000           315.468       6.472
 149.7500           304.437       6.384
 149.8000           305.020       6.426
 149.8500           315.186       6.582
 149.9000           314.600       6.608
 149.9500           306.588       6.583
 150.0000           295.690       6.535
 150.0500           297.233       6.548
 150.1000           309.100       6.675
 150.1500           311.604       6.742
 150.2000           305.419       6.643
 150.2500           303.273       6.609
 150.3000           311.954       6.717
 150.3500           318.947       6.772
 150.4000           309.971       6.695
 150.4500           313.794       6.724
 150.5000           325.230       6.844
 150.5500           313.927       6.748
 150.6000           329.573       6.928
 150.6500           336.657       7.085
 150.7000           354.323       7.253
 150.7500           370.411       7.442
 150.8000           397.560       7.744
 150.8500           414.789       7.941
 150.9000           447.397       8.284
 150.9500           482.528       8.635
 151.0000           535.314       9.139
 151.0500           593.659       9.727
 151.1000           663.075      10.278
 151.1500           727.024      10.813
 151.2000           772.254      11.259
 151.2500           857.513      12.003
 151.3000           909.414      12.366
 151.3500           958.858      12.696
 151.4000          1055.318      13.319
 151.4500          1106.345      13.636
 151.5000          1127.446      13.767
 151.5500          1165.785      13.999
 151.6000          1206.102      14.239
 151.6500          1232.307      14.396
 151.7000          1244.552      14.469
 151.7500          1270.971      14.631
 151.8000          1294.247      14.807
 151.8500          1340.606      15.138
 151.9000          1376.398      15.406
 151.9500          1424.811      15.760
 152.0000          1476.518      16.111
 152.0500          1533.622      16.495
 152.1000          1627.182      17.067
 152.1500          1682.083      17.413
 152.2000          1787.286      18.024
 152.2500          1870.238      18.541
 152.3000          1937.557      18.963
 152.3500          2027.338      19.515
 152.4000          2048.900      19.793
 152.4500          2094.807      20.250
 152.5000          2141.607      20.792
 152.5500          2130.051      20.741
 152.6000          2143.275      20.802
 152.6500          2160.039      20.882
 152.7000          2100.568      20.591
 152.7500          2048.777      20.340
 152.8000          1942.443      19.807
 152.8500          1830.770      19.230
 152.9000          1748.825      18.791
 152.9500          1637.994      18.187
 153.0000          1523.255      17.590
 153.0500          1443.818      17.197
 153.1000          1318.360      16.513
 153.1500          1209.920      15.920
 153.2000          1095.325      15.226
 153.2500          1000.875      14.634
 153.3000           909.470      14.037
 153.3500           835.569      13.527
 153.4000           773.398      13.117
 153.4500           698.291      12.545
 153.5000           641.029      12.092
 153.5500           572.694      11.513
 153.6000           534.198      11.197
 153.6500           498.943      10.939
 153.7000           454.442      10.577
 153.7500           434.579      10.465
 153.8000           420.846      10.303
 153.8500           415.855      10.246
 153.9000           395.129       9.995
 153.9500           379.542       9.789
 154.0000           373.517       9.709
 154.0500           361.332       9.547
 154.1000           361.634       9.557
 154.1500           353.827       9.455
 154.2000           339.070       9.273
 154.2500           336.063       9.280
 154.3000           327.357       9.208
 154.3500           331.655       9.325
 154.4000           321.802       9.273
 154.4500           321.557       9.302
 154.5000           312.732       9.210
 154.5500           307.754       9.230
 154.6000           306.093       9.245
 154.6500           314.126       9.431
 154.7000           312.545       9.483
 154.7500           322.589       9.716
 154.8000           320.521       9.750
 154.8500           315.517       9.777
 154.9000           299.228       9.648
 154.9500           312.299      10.027
 155.0000           305.751      10.128
 155.0500           296.109       9.962
 155.1000           303.299      10.084
 155.1500           311.962      10.213
 155.2000           301.335      10.050
 155.2500           282.711       9.754
 155.3000           307.794      10.171
 155.3500           320.296      10.365
 155.4000           315.562      10.323
 155.4500           318.911      10.454
 155.5000           323.613      10.620
 155.5500           307.399      10.498
 155.6000           315.552      10.712
 155.6500           327.473      10.980
 155.7000           304.544      10.633
 155.7500           317.565      10.971
 155.8000           298.270      10.741
 155.8500           307.509      10.997
 155.9000           313.311      11.211
 155.9500           316.285      11.404
 156.0000           313.134      11.510
 156.0500           313.579      11.648
 156.1000           299.007      11.469
 156.1500           303.191      11.755
 156.2000           293.662      11.850
 156.2500           282.797      11.911
 156.3000           313.689      12.540
 156.3500           290.731      12.094
 156.4000           283.223      11.925
 156.4500           286.889      11.977
 156.5000           296.534      12.210
 156.5500           284.989      11.963
 156.6000           285.286      12.068
 156.6500           291.550      12.414
 156.7000           314.292      13.085
 156.7500           292.429      12.744
 156.8000           292.281      13.017
 156.8500           298.841      13.387
 156.9000           316.509      14.186
 156.9500           303.012      13.826
 157.0000           290.398      13.551
 157.0500           299.248      14.021
 157.1000           307.980      14.516
 157.1500           299.822      14.496
 157.2000           318.410      15.279
 157.2500           292.841      14.953
 157.3000           297.810      15.174
 157.3500           279.698      14.828
 157.4000           287.940      15.560
 157.4500           283.595      16.110
 157.5000           298.761      17.277
 157.5500           272.388      16.503
 157.6000           283.350      16.823
 157.6500           306.420      17.482
 157.7000           314.614      17.693
 157.7500           300.410      17.328
 157.8000           277.533      16.650
 157.8500           284.664      16.881
 157.9000           307.227      17.543
 157.9500           296.934      17.246
 158.0000           305.864      17.497
 158.0500           338.005      18.381
 158.1000           339.443      18.422
 158.1500           328.029      18.148
 158.2000           322.408      17.930
 158.2500           318.289      17.791
 158.3000           335.785      18.305
 158.3500           338.611      18.417
 158.4000           344.720      18.593
 158.4500           336.259      18.315
 158.5000           339.064      18.417
 158.5500           356.752      18.920
 158.6000           344.602      18.585
 158.6500           343.348      18.598
 158.7000           362.882      19.096
 158.7500           388.917      19.743
 158.8000           401.196      20.035
 158.8500           406.812      20.210
 158.9000           405.609      20.199
 158.9500           409.715      20.446
 159.0000           421.662      20.887
 159.0500           401.130      20.643
 159.1000           388.782      20.664
 159.1500           393.273      21.163
 159.2000           423.237      22.370
 159.2500           412.763      22.316
 159.3000           417.718      22.838
 159.3500           441.466      23.900
 159.4000           460.586      25.237
 159.4500           454.089      25.484
 159.5000           439.517      25.667
 159.5500           462.460      27.039
 159.6000           466.092      28.120
 159.6500           469.209      29.365
 159.7000           422.467      29.135
 159.7500           420.449      30.310
 159.8000           467.931      34.263
 159.8500           384.907      33.553
 159.9000           355.600      36.374
 159.9500             0.000       0.000
